,emg timestamp,esp timestamp,ch_1,ch_2,ch_3,ch_4,foot angle,shank angle,shank-90,ankle ankle,index
0,1618666413.02,1618666413.0154,-445.4407959,-142.8847504,-98.19481659,-69.33213806,-0.4,88.8,-1.2000000000000028,0.8000000000000028,0.0
1,1618666413.051,1618666413.0483599,-425.9110413,-115.0524139,-71.51062775,-30.83360481,-0.4,88.8,-1.2000000000000028,0.8000000000000028,1.0
2,1618666413.051,1618666413.04938,-440.6761475,-127.3566818,-90.79354858,-54.50717163,-0.4,88.8,-1.2000000000000028,0.8000000000000028,2.0
3,1618666413.08,1618666413.08336,-414.152771,-133.4228058,-87.5473175,-77.88902283,-0.4,88.8,-1.2000000000000028,0.8000000000000028,3.0
4,1618666413.08,1618666413.08434,-405.8876038,-139.6497345,-92.73455811,-93.61156464,-0.4,88.8,-1.2000000000000028,0.8000000000000028,4.0
5,1618666413.127,1618666413.1203198,-404.7506714,-116.6717911,-93.83035278,-96.46137238,-0.3,88.7,-1.2999999999999972,0.9999999999999971,5.0
6,1618666413.127,1618666413.12232,-398.5162659,-124.8920898,-75.93119049,-84.43011475,-0.3,88.7,-1.2999999999999972,0.9999999999999971,6.0
7,1618666413.156,1618666413.14833,-397.8842163,-125.5054321,-81.11469269,-146.284317,-0.3,88.7,-1.2999999999999972,0.9999999999999971,7.0
8,1618666413.186,1618666413.18029,-386.3279114,-131.306015,-85.688591,-110.2578583,-0.3,88.7,-1.2999999999999972,0.9999999999999971,8.0
9,1618666413.186,1618666413.1812901,-375.4597778,-137.2001038,-86.69836426,-119.9441986,-0.3,88.7,-1.2999999999999972,0.9999999999999971,9.0
10,1618666413.216,1618666413.2152698,-399.7691345,-140.0798187,-91.81828308,-121.5972366,-0.4,88.7,-1.2999999999999972,0.8999999999999971,10.0
11,1618666413.246,1618666413.24525,-366.973938,-115.1272125,-80.74817657,-103.140831,-0.4,88.7,-1.2999999999999972,0.8999999999999971,11.0
12,1618666413.246,1618666413.24626,-357.9533081,-106.9031677,-67.9165802,-112.0230942,-0.4,88.7,-1.2999999999999972,0.8999999999999971,12.0
13,1618666413.277,1618666413.28023,-357.0183411,-129.1219177,-83.6316452,-142.1816406,-0.4,88.6,-1.4000000000000057,1.0000000000000058,13.0
14,1618666413.277,1618666413.2822301,-372.3781128,-151.2882996,-100.3863983,-150.0204773,-0.4,88.6,-1.4000000000000057,1.0000000000000058,14.0
15,1618666413.321,1618666413.32021,-358.5255127,-114.4016724,-83.53814697,-160.6904144,-0.4,88.6,-1.4000000000000057,1.0000000000000058,15.0
16,1618666413.336,1618666413.3302,-383.1938782,-124.3460617,-83.36985016,-127.8653107,-0.4,88.6,-1.4000000000000057,1.0000000000000058,16.0
17,1618666413.35,1618666413.34919,-369.7901001,-119.9666443,-86.57868195,-112.9393692,-0.4,88.6,-1.4000000000000057,1.0000000000000058,17.0
18,1618666413.38,1618666413.3801699,-340.6113892,-126.2085342,-45.70157623,-170.171051,-0.4,88.6,-1.4000000000000057,1.0000000000000058,18.0
19,1618666413.38,1618666413.38117,-377.0305481,-103.5110779,-104.8480988,-122.8501053,-0.4,88.6,-1.4000000000000057,1.0000000000000058,19.0
20,1618666413.411,1618666413.41415,-371.9218445,-99.01946259,-83.6727829,-120.5687637,-0.4,88.5,-1.5,1.1,20.0
21,1618666413.456,1618666413.44913,-353.5963135,-124.4844437,-92.01275635,-156.6887207,-0.4,88.5,-1.5,1.1,21.0
22,1618666413.456,1618666413.45213,-333.1802063,-81.43070984,-84.49555969,-139.7806244,-0.4,88.5,-1.5,1.1,22.0
23,1618666413.486,1618666413.47811,-327.9518127,-110.7365646,-76.05460358,-143.8234558,-0.4,88.5,-1.5,1.1,23.0
24,1618666413.516,1618666413.51409,-338.6816101,-129.2864685,-86.8105545,-160.5408173,-0.3,88.4,-1.5999999999999943,1.2999999999999943,24.0
25,1618666413.516,1618666413.51509,-306.6156921,-99.31491089,-60.63125992,-142.8174286,-0.3,88.4,-1.5999999999999943,1.2999999999999943,25.0
26,1618666413.546,1618666413.54108,-314.5517578,-118.8596268,-64.51140594,-160.1855316,-0.3,88.3,-1.7000000000000028,1.4000000000000028,26.0
27,1618666413.546,1618666413.54308,-320.3822632,-116.0173035,-67.578125,-135.6255951,-0.3,88.3,-1.7000000000000028,1.4000000000000028,27.0
28,1618666413.575,1618666413.58006,-303.26474,-120.0451813,-48.45601273,-136.2202454,-0.4,88.3,-1.7000000000000028,1.300000000000003,28.0
29,1618666413.575,1618666413.58105,-316.4030151,-117.0756989,-56.77729034,-86.58055115,-0.4,88.3,-1.7000000000000028,1.300000000000003,29.0
30,1618666413.621,1618666413.61467,-301.215271,-127.8727875,-55.6852417,-151.2359467,-0.4,88.3,-1.7000000000000028,1.300000000000003,30.0
31,1618666413.635,1618666413.64166,-309.1326599,-115.6246185,-36.70898819,-139.9825897,-0.4,88.2,-1.7999999999999972,1.3999999999999972,31.0
32,1618666413.651,1618666413.64467,-320.6627502,-125.3483582,-41.26418686,-131.2237396,-0.4,88.2,-1.7999999999999972,1.3999999999999972,32.0
33,1618666413.681,1618666413.67564,-276.315033,-131.8221283,-27.62477112,-123.7551575,-0.4,88.1,-1.9000000000000057,1.5000000000000058,33.0
34,1618666413.711,1618666413.70962,-300.1456604,-115.6694946,-32.06029129,-136.0033264,-0.4,88.1,-1.9000000000000057,1.5000000000000058,34.0
35,1618666413.711,1618666413.71062,-279.8866272,-119.371994,-29.55455971,-160.7764282,-0.4,88.1,-1.9000000000000057,1.5000000000000058,35.0
36,1618666413.741,1618666413.7376,-262.769104,-109.827774,-21.59979248,-134.0660706,-0.4,88.0,-2.0,1.6,36.0
37,1618666413.771,1618666413.77059,-272.2385254,-110.3663177,-25.95303535,-143.8085022,-0.4,88.0,-2.0,1.6,37.0
38,1618666413.772,1618666413.77159,-249.2493744,-151.3444061,-33.75072861,-164.9389343,-0.4,88.0,-2.0,1.6,38.0
39,1618666413.802,1618666413.80656,-265.7610168,-116.6830063,-11.98824978,-135.3151855,-0.4,87.9,-2.0999999999999943,1.6999999999999944,39.0
40,1618666413.802,1618666413.80756,-233.1678009,-117.7301788,-10.9261179,-157.085144,-0.4,87.9,-2.0999999999999943,1.6999999999999944,40.0
41,1618666413.832,1618666413.83755,-241.6611176,-122.5920486,-7.275975227,-145.9140625,-0.4,87.9,-2.0999999999999943,1.6999999999999944,41.0
42,1618666413.875,1618666413.8735301,-223.5338135,-125.355835,19.81586075,-191.5034485,-0.4,87.9,-2.0999999999999943,1.6999999999999944,42.0
43,1618666413.875,1618666413.87453,-253.3408203,-98.41733551,14.93155098,-104.9883423,-0.4,87.9,-2.0999999999999943,1.6999999999999944,43.0
44,1618666413.905,1618666413.9065099,-227.1016846,-115.175827,5.507002831,-146.677002,-0.4,87.8,-2.200000000000003,1.800000000000003,44.0
45,1618666413.905,1618666413.90751,-208.611618,-115.471283,5.667818546,-155.5368347,-0.4,87.8,-2.200000000000003,1.800000000000003,45.0
46,1618666413.935,1618666413.9384902,-226.4472046,-72.58584595,30.07066536,-74.99434662,-0.4,87.8,-2.200000000000003,1.800000000000003,46.0
47,1618666413.935,1618666413.93949,-244.7203522,-110.3214417,8.753235817,-105.5231476,-0.4,87.8,-2.200000000000003,1.800000000000003,47.0
48,1618666413.966,1618666413.9724698,-195.6528625,-139.5076141,-28.0324192,-158.5100555,-0.4,87.8,-2.200000000000003,1.800000000000003,48.0
49,1618666414.011,1618666414.00445,-197.4592438,-112.7561111,25.30977249,-133.0525513,-0.4,87.8,-2.200000000000003,1.800000000000003,49.0
50,1618666414.102,1618666414.0954,-188.6442871,-124.8135529,-4.826340675,-118.7436905,-0.4,87.7,-2.299999999999997,1.8999999999999972,50.0
51,1618666414.116,1618666414.11641,-211.6671143,-130.8534851,-19.75228119,-156.1875763,-0.4,87.7,-2.299999999999997,1.8999999999999972,51.0
52,1618666414.116,1618666414.1174,-188.9734039,-118.4968567,-15.60847282,-140.8390198,-0.4,87.7,-2.299999999999997,1.8999999999999972,52.0
53,1618666414.131,1618666414.11939,-174.4102325,-125.2324219,-15.5561142,-165.9599304,-0.4,87.7,-2.299999999999997,1.8999999999999972,53.0
54,1618666414.131,1618666414.12039,-186.2993774,-130.1391754,-32.56892014,-153.7678528,-0.4,87.7,-2.299999999999997,1.8999999999999972,54.0
55,1618666414.132,1618666414.12138,-199.6396027,-129.6118469,-13.42063141,-169.6362457,-0.4,87.7,-2.299999999999997,1.8999999999999972,55.0
56,1618666414.132,1618666414.13539,-168.9574585,-138.2809296,-26.2185688,-149.5567322,-0.4,87.7,-2.299999999999997,1.8999999999999972,56.0
57,1618666414.161,1618666414.15936,-189.0033264,-108.2158737,-2.178491831,-169.1089325,-0.4,87.6,-2.4000000000000057,2.0000000000000058,57.0
58,1618666414.191,1618666414.19034,-161.2644806,-118.7249908,-23.256567,-145.8205719,-0.4,87.6,-2.4000000000000057,2.0000000000000058,58.0
59,1618666414.222,1618666414.22732,-155.9463501,-143.4120789,-58.40788651,-177.2993011,-0.4,87.4,-2.5999999999999943,2.1999999999999944,59.0
60,1618666414.235,1618666414.2293198,-169.563324,-119.371994,-20.8667717,-121.1484528,-0.4,87.4,-2.5999999999999943,2.1999999999999944,60.0
61,1618666414.252,1618666414.25531,-152.718811,-130.2738037,-39.98888016,-147.9298706,-0.4,87.2,-2.799999999999997,2.3999999999999972,61.0
62,1618666414.252,1618666414.25631,-145.5531616,-121.8365936,-39.96644211,-178.9336395,-0.4,87.2,-2.799999999999997,2.3999999999999972,62.0
63,1618666414.296,1618666414.2922802,-143.2680817,-181.7310944,-135.8350372,-257.370575,-0.4,86.9,-3.0999999999999943,2.6999999999999944,63.0
64,1618666414.296,1618666414.29828,-146.4170837,-127.8428726,-30.91214371,-188.6947784,-0.4,86.9,-3.0999999999999943,2.6999999999999944,64.0
65,1618666414.325,1618666414.3292599,-90.55793762,332.3948364,-203.2429962,-325.9453735,-0.4,86.4,-3.5999999999999943,3.1999999999999944,65.0
66,1618666414.355,1618666414.35525,30.89531326,669.9656982,-348.3866272,-589.5522461,-0.4,86.4,-3.5999999999999943,3.1999999999999944,66.0
67,1618666414.355,1618666414.35725,-129.9540405,638.93573,-473.4451599,-560.3361206,-0.4,86.4,-3.5999999999999943,3.1999999999999944,67.0
68,1618666414.385,1618666414.38923,-67.53511047,1034.839722,-904.5116577,-742.6936646,-0.5,86.2,-3.799999999999997,3.299999999999997,68.0
69,1618666414.431,1618666414.42497,-165.4344788,733.6057129,-1025.639526,-1148.298828,-0.8,85.9,-4.099999999999994,3.2999999999999945,69.0
70,1618666414.431,1618666414.42697,-110.3569641,639.1526489,-902.2601929,-1166.964722,-0.8,85.9,-4.099999999999994,3.2999999999999945,70.0
71,1618666414.445,1618666414.45396,-132.0596008,973.9503784,-913.9287109,-1059.999878,-0.8,85.9,-4.099999999999994,3.2999999999999945,71.0
72,1618666414.445,1618666414.4549599,-166.204895,1042.532593,-995.9671631,-1045.148682,-0.8,85.9,-4.099999999999994,3.2999999999999945,72.0
73,1618666414.48,1618666414.4839401,-157.7302856,1690.178589,-1047.910645,-509.9222717,-1.2,85.6,-4.400000000000006,3.2000000000000055,73.0
74,1618666414.521,1618666414.51892,-128.2411652,1876.64624,-1048.075195,-139.8292542,-1.8,85.4,-4.599999999999994,2.7999999999999945,74.0
75,1618666414.521,1618666414.52092,-165.2138214,1925.848389,-985.9517212,-240.282959,-1.8,85.4,-4.599999999999994,2.7999999999999945,75.0
76,1618666414.551,1618666414.55091,-212.6357574,-159.7984467,-116.7708969,-154.3269653,-1.8,85.4,-4.599999999999994,2.7999999999999945,76.0
77,1618666414.551,1618666414.5519,-174.9525146,-310.5126648,-276.1916199,-169.4735718,-3.0,85.3,-4.700000000000003,1.7000000000000028,77.0
78,1618666414.58,1618666414.5878801,45.3537674,-26.65052795,42.58624268,381.9111023,-3.0,85.3,-4.700000000000003,1.7000000000000028,78.0
79,1618666414.626,1618666414.62386,-236.2831421,-117.7114792,414.5361328,-27.02451706,-4.4,85.4,-4.599999999999994,0.19999999999999396,79.0
80,1618666414.627,1618666414.62686,-177.877121,-227.9225922,230.8621521,-158.3211823,-4.4,85.4,-4.599999999999994,0.19999999999999396,80.0
81,1618666414.657,1618666414.65585,-51.4049263,-312.057251,103.0155411,-559.3618774,-7.1,85.7,-4.299999999999997,-2.8000000000000025,81.0
82,1618666414.658,1618666414.65784,-226.6528931,-392.5829163,-101.6317825,-702.0409546,-7.1,85.7,-4.299999999999997,-2.8000000000000025,82.0
83,1618666414.686,1618666414.68382,-199.3740692,-387.8556824,103.1053009,-425.7745056,-7.1,85.7,-4.299999999999997,-2.8000000000000025,83.0
84,1618666414.717,1618666414.7218,-220.526947,-303.2516479,-705.3601074,-484.1412659,-9.7,86.1,-3.9000000000000057,-5.799999999999994,84.0
85,1618666414.717,1618666414.7228,-167.9215088,-232.2945404,-698.8452148,-583.8881226,-9.7,86.1,-3.9000000000000057,-5.799999999999994,85.0
86,1618666414.747,1618666414.75179,29.16748047,-258.1839905,-517.946228,-700.838562,-11.9,86.6,-3.4000000000000057,-8.499999999999995,86.0
87,1618666414.76,1618666414.7548,-138.035965,-622.7681274,-891.8184204,-753.960083,-11.9,86.6,-3.4000000000000057,-8.499999999999995,87.0
88,1618666414.777,1618666414.7837698,-57.94226837,-473.9537964,-666.2687988,-1318.518555,-15.3,87.0,-3.0,-12.3,88.0
89,1618666414.82,1618666414.82175,-178.4755096,-710.3640747,-954.4916382,-1143.083618,-15.3,87.0,-3.0,-12.3,89.0
90,1618666414.82,1618666414.82275,-116.6923599,-717.1239624,-814.6081543,-1135.020386,-15.3,87.0,-3.0,-12.3,90.0
91,1618666414.851,1618666414.84973,248.5444031,-157.4273529,-1020.502747,-1637.705933,-18.7,87.7,-2.299999999999997,-16.400000000000002,91.0
92,1618666414.88,1618666414.88571,233.0275574,-221.2898865,-1527.053467,-1527.17688,-22.4,88.8,-1.2000000000000028,-21.199999999999996,92.0
93,1618666414.88,1618666414.88671,340.4898376,-320.1111145,-1517.475586,-1697.716309,-22.4,88.8,-1.2000000000000028,-21.199999999999996,93.0
94,1618666414.911,1618666414.91469,419.7084045,-161.8217316,-1605.862549,-2604.918945,-22.4,88.8,-1.2000000000000028,-21.199999999999996,94.0
95,1618666414.911,1618666414.91669,207.2259827,-212.3141174,-1440.665527,-2459.3396,-22.4,88.8,-1.2000000000000028,-21.199999999999996,95.0
96,1618666414.956,1618666414.95167,821.1174927,172.3495483,-1273.355469,-2750.625244,-25.5,89.6,-0.4000000000000057,-25.099999999999994,96.0
97,1618666414.956,1618666414.95467,677.7633667,15.51684475,-1110.118286,-2521.171387,-25.5,89.6,-0.4000000000000057,-25.099999999999994,97.0
98,1618666414.97,1618666414.97766,712.3686523,-317.9831238,-1034.228149,-2544.515625,-29.0,90.5,0.5,-29.5,98.0
99,1618666415.016,1618666415.0106401,838.4481812,-7.36947298,-1145.207886,-2742.704346,-32.2,91.1,1.0999999999999943,-33.3,99.0
100,1618666415.016,1618666415.01264,800.8696289,8.476483345,-1356.192383,-2580.946045,-32.2,91.1,1.0999999999999943,-33.3,100.0
101,1618666415.046,1618666415.04462,682.7486572,-373.002655,-1235.023438,-2582.950684,-32.2,91.1,1.0999999999999943,-33.3,101.0
102,1618666415.077,1618666415.0796,846.2720337,-75.27857971,-1321.170166,-3142.336914,-34.3,90.9,0.9000000000000057,-35.2,102.0
103,1618666415.077,1618666415.0816,733.7347412,-268.8931885,-1279.049561,-3040.331055,-34.3,90.9,0.9000000000000057,-35.2,103.0
104,1618666415.107,1618666415.11358,644.9195557,-1158.043213,-1198.80249,-3466.543213,-35.2,90.6,0.5999999999999943,-35.8,104.0
105,1618666415.121,1618666415.11558,738.072998,-1375.666138,-1126.932861,-3662.985107,-35.2,90.6,0.5999999999999943,-35.8,105.0
106,1618666415.15,1618666415.14956,598.6569824,-1140.267456,-972.362793,-3992.760254,-35.6,90.3,0.29999999999999716,-35.9,106.0
107,1618666415.18,1618666415.17754,671.1212769,-1356.113892,-863.4812012,-4638.960449,-35.6,90.3,0.29999999999999716,-35.9,107.0
108,1618666415.18,1618666415.1795402,706.6242065,-1363.215942,-661.1993408,-4584.803223,-35.6,90.3,0.29999999999999716,-35.9,108.0
109,1618666415.211,1618666415.20753,728.2669678,-1234.421265,-477.9779053,-4447.433105,-35.5,90.0,0.0,-35.5,109.0
110,1618666415.24,1618666415.2445,828.5897827,-1302.78479,-854.5222778,-4653.759277,-35.4,89.8,-0.20000000000000284,-35.199999999999996,110.0
111,1618666415.24,1618666415.2455,823.9335938,-1108.326782,-675.5643311,-4705.298828,-35.4,89.8,-0.20000000000000284,-35.199999999999996,111.0
112,1618666415.27,1618666415.2765,748.9673462,-1300.247314,213.462265,-5051.608398,-35.3,89.8,-0.20000000000000284,-35.099999999999994,112.0
113,1618666415.286,1618666415.27848,766.3728027,-1646.859375,440.6350098,-5104.381836,-35.3,89.8,-0.20000000000000284,-35.099999999999994,113.0
114,1618666415.302,1618666415.30547,742.1943359,-1293.354614,652.9266968,-5056.054688,-35.3,89.8,-0.20000000000000284,-35.099999999999994,114.0
115,1618666415.346,1618666415.34145,782.3085327,-1120.365601,466.4459229,-5542.27002,-35.5,89.9,-0.09999999999999432,-35.400000000000006,115.0
116,1618666415.346,1618666415.34445,773.5571899,-996.0849609,317.4857178,-5535.896973,-35.5,89.9,-0.09999999999999432,-35.400000000000006,116.0
117,1618666415.376,1618666415.37245,834.7382202,-1010.850098,238.2970734,-5492.727539,-35.8,89.7,-0.29999999999999716,-35.5,117.0
118,1618666415.376,1618666415.37343,721.1050415,-1223.975708,301.0039673,-5509.818848,-35.8,89.7,-0.29999999999999716,-35.5,118.0
119,1618666415.406,1618666415.40241,857.87323,-1435.592407,129.3556671,-5619.121094,-35.8,89.7,-0.29999999999999716,-35.5,119.0
120,1618666415.436,1618666415.43639,725.918335,-1268.667603,106.1907196,-5977.547363,-35.8,89.4,-0.5999999999999943,-35.2,120.0
121,1618666415.437,1618666415.43739,764.9628906,-1226.118774,210.5975037,-6025.526855,-35.8,89.4,-0.5999999999999943,-35.2,121.0
122,1618666415.48,1618666415.4763699,786.9497681,-1125.264893,305.3964844,-6170.223633,-35.7,89.3,-0.7000000000000028,-35.0,122.0
123,1618666415.48,1618666415.47737,680.2990112,-891.7062378,179.5488586,-6408.737305,-35.7,89.3,-0.7000000000000028,-35.0,123.0
124,1618666415.511,1618666415.50635,689.1775513,-878.1340942,547.6166992,-6450.074707,-35.5,89.1,-0.9000000000000057,-34.599999999999994,124.0
125,1618666415.541,1618666415.53933,-219.7434387,-161.558075,-98.80254364,-166.670517,-35.1,88.9,-1.0999999999999943,-34.00000000000001,125.0
126,1618666415.542,1618666415.54133,-242.0407104,-217.174118,-298.4608459,-151.2396851,-35.1,88.9,-1.0999999999999943,-34.00000000000001,126.0
127,1618666415.572,1618666415.57331,-165.4176483,-101.6112137,-154.6242981,-180.5305786,-35.1,88.9,-1.0999999999999943,-34.00000000000001,127.0
128,1618666415.572,1618666415.57531,-252.4301605,-194.7384644,-147.9971924,-194.177475,-35.1,88.9,-1.0999999999999943,-34.00000000000001,128.0
129,1618666415.602,1618666415.6053,-222.241684,-474.9785156,-525.9645996,-147.5222168,-34.7,88.7,-1.2999999999999972,-33.400000000000006,129.0
130,1618666415.632,1618666415.6382802,-196.6981659,-765.2471313,-697.005127,-132.1100922,-34.1,88.3,-1.7000000000000028,-32.4,130.0
131,1618666415.645,1618666415.64027,-250.5489807,-746.7832031,-580.8625488,-107.3781357,-34.1,88.3,-1.7000000000000028,-32.4,131.0
132,1618666415.675,1618666415.67426,-228.0460052,-258.9562683,-714.1451416,-187.5204468,-33.5,88.1,-1.9000000000000057,-31.599999999999994,132.0
133,1618666415.675,1618666415.67525,-241.4535522,-239.6696167,-714.7023315,-168.5741272,-33.5,88.1,-1.9000000000000057,-31.599999999999994,133.0
134,1618666415.705,1618666415.70424,-268.7099304,-235.8399658,-706.343689,-145.5774689,-33.5,88.1,-1.9000000000000057,-31.599999999999994,134.0
135,1618666415.735,1618666415.73422,-223.217804,-75.02426147,-173.634201,-191.6829681,-32.5,87.4,-2.5999999999999943,-29.900000000000006,135.0
136,1618666415.735,1618666415.73522,-76.98397064,-14.32942677,-138.389389,-123.964592,-32.5,87.4,-2.5999999999999943,-29.900000000000006,136.0
137,1618666415.767,1618666415.7712,-252.3104858,-85.89989471,-181.4692993,-146.0786285,-31.4,86.8,-3.200000000000003,-28.199999999999996,137.0
138,1618666415.767,1618666415.7732,-221.1309357,-187.1576843,-139.3468018,-192.3000488,-31.4,86.8,-3.200000000000003,-28.199999999999996,138.0
139,1618666415.795,1618666415.79618,-197.4910278,-221.3067169,-240.5410156,-96.02754211,-29.6,86.1,-3.9000000000000057,-25.699999999999996,139.0
140,1618666415.826,1618666415.8297698,-243.7124481,-779.2941895,-207.1474457,-124.14785,-29.6,86.1,-3.9000000000000057,-25.699999999999996,140.0
141,1618666415.871,1618666415.86777,-205.2513123,-549.5895386,-143.8459015,-151.2696075,-27.7,85.3,-4.700000000000003,-22.999999999999996,141.0
142,1618666415.871,1618666415.86875,-157.8256531,-494.7999878,-126.0551987,-209.4736633,-27.7,85.3,-4.700000000000003,-22.999999999999996,142.0
143,1618666415.902,1618666415.90173,-234.594574,-625.0756836,-129.5856628,-167.7850037,-24.9,85.0,-5.0,-19.9,143.0
144,1618666415.902,1618666415.90573,-172.3439331,-694.2039795,-202.1359863,-263.8892212,-24.9,85.0,-5.0,-19.9,144.0
145,1618666415.931,1618666415.9307199,-202.0387421,-422.4329224,-105.7288437,-135.2964935,-24.9,85.0,-5.0,-19.9,145.0
146,1618666415.932,1618666415.93171,-270.8491516,-774.5669556,-198.3287659,-107.8044891,-24.9,85.0,-5.0,-19.9,146.0
147,1618666415.962,1618666415.96669,-244.2210693,-645.3683472,-144.4405518,-589.647583,-22.2,84.5,-5.5,-16.7,147.0
148,1618666415.992,1618666415.99568,-216.9684296,-626.4968262,-101.0352707,-579.9612427,-18.9,84.4,-5.599999999999994,-13.300000000000004,148.0
149,1618666415.992,1618666415.99668,-172.0036163,-841.0193481,-103.5260391,-562.5856934,-18.9,84.4,-5.599999999999994,-13.300000000000004,149.0
150,1618666416.035,1618666416.03066,-215.4088898,-166.6817322,-10.27911472,-400.872406,-15.7,84.4,-5.599999999999994,-10.100000000000005,150.0
151,1618666416.065,1618666416.06564,-128.0822296,-27.43029594,-52.13233566,-676.9443359,-15.7,84.4,-5.599999999999994,-10.100000000000005,151.0
152,1618666416.065,1618666416.06764,-158.9064789,-183.4477081,-99.10173798,-622.1697388,-15.7,84.4,-5.599999999999994,-10.100000000000005,152.0
153,1618666416.096,1618666416.09262,-132.622467,44.02797318,-70.82809448,-648.5584717,-12.1,84.7,-5.299999999999997,-6.8000000000000025,153.0
154,1618666416.096,1618666416.09462,-189.2557678,213.8998413,-123.1006775,-564.9642334,-12.1,84.7,-5.299999999999997,-6.8000000000000025,154.0
155,1618666416.126,1618666416.1296,-95.50769806,-87.81658936,15.70570946,-666.7867432,-9.8,84.9,-5.099999999999994,-4.700000000000006,155.0
156,1618666416.171,1618666416.16558,-151.4266815,342.8497314,-52.46144485,-595.882019,-7.2,85.3,-4.700000000000003,-2.4999999999999973,156.0
157,1618666416.171,1618666416.16658,-143.1465454,332.8155518,-79.79263306,-641.0413208,-7.2,85.3,-4.700000000000003,-2.4999999999999973,157.0
158,1618666416.201,1618666416.19456,-158.0874481,337.5652466,-9.920084953,-552.1775513,-7.2,85.3,-4.700000000000003,-2.4999999999999973,158.0
159,1618666416.201,1618666416.19556,-158.1772003,302.3316345,-106.1140518,-567.0510864,-7.2,85.3,-4.700000000000003,-2.4999999999999973,159.0
160,1618666416.232,1618666416.23154,-88.95912933,431.4778748,-126.8667526,-717.211853,-5.9,85.6,-4.400000000000006,-1.4999999999999947,160.0
161,1618666416.232,1618666416.23354,-138.1463013,202.2257385,-18.92202377,-489.7623291,-5.9,85.6,-4.400000000000006,-1.4999999999999947,161.0
162,1618666416.262,1618666416.26152,-82.71723938,317.3361206,-8.476483345,-640.6598511,-4.7,85.8,-4.200000000000003,-0.49999999999999734,162.0
163,1618666416.291,1618666416.28953,-81.67754364,279.6341858,-39.85050583,-578.6074219,-4.1,86.2,-3.799999999999997,-0.3000000000000025,163.0
164,1618666416.322,1618666416.3234901,-94.95419312,830.8973389,-43.40715027,-565.3382568,-4.1,86.2,-3.799999999999997,-0.3000000000000025,164.0
165,1618666416.322,1618666416.32549,-87.66512299,849.3051147,-17.34004593,-529.3379517,-4.1,86.2,-3.799999999999997,-0.3000000000000025,165.0
166,1618666416.365,1618666416.3604698,-99.83101654,719.4483032,-58.93147278,-731.5880127,-3.6,86.5,-3.5,-0.10000000000000009,166.0
167,1618666416.365,1618666416.3624802,-141.6468353,791.8228149,-16.71922302,-975.4837036,-3.6,86.5,-3.5,-0.10000000000000009,167.0
168,1618666416.395,1618666416.39145,-106.6712952,758.6574097,-58.64723969,-1031.099731,-3.3,86.9,-3.0999999999999943,-0.2000000000000055,168.0
169,1618666416.395,1618666416.39247,-87.43698883,766.4139404,-75.63386536,-1108.878418,-3.3,86.9,-3.0999999999999943,-0.2000000000000055,169.0
170,1618666416.426,1618666416.43258,-94.45677948,786.0858154,-58.48268509,-961.982666,-2.9,87.3,-2.700000000000003,-0.19999999999999707,170.0
171,1618666416.441,1618666416.4335802,-108.8441772,750.1453857,-56.79598999,-1170.747681,-2.9,87.3,-2.700000000000003,-0.19999999999999707,171.0
172,1618666416.455,1618666416.45456,-96.06867981,826.4655151,-14.67723751,-1057.92981,-2.9,87.3,-2.700000000000003,-0.19999999999999707,172.0
173,1618666416.486,1618666416.49156,-111.4882889,779.6307373,-68.22138214,-1085.93042,-2.8,87.4,-2.5999999999999943,-0.2000000000000055,173.0
174,1618666416.486,1618666416.4925401,-92.93838501,773.5197754,-53.19072723,-1136.146118,-2.8,87.4,-2.5999999999999943,-0.2000000000000055,174.0
175,1618666416.515,1618666416.5225198,-66.87128448,688.5343018,-178.3240356,-1247.370728,-2.6,87.7,-2.299999999999997,-0.30000000000000293,175.0
176,1618666416.56,1618666416.55352,-115.5255127,-139.9564056,-6.557914734,-76.50339508,-2.5,87.8,-2.200000000000003,-0.29999999999999716,176.0
177,1618666416.56,1618666416.5545,-135.391861,-199.2674866,-43.69137955,-53.85829926,-2.5,87.8,-2.200000000000003,-0.29999999999999716,177.0
178,1618666416.577,1618666416.5834901,-92.08381653,-206.4854889,-76.93534851,-144.8799896,-2.5,87.8,-2.200000000000003,-0.29999999999999716,178.0
179,1618666416.62,1618666416.61747,-125.967308,-192.311264,-33.72828674,-160.7221985,-2.4,87.8,-2.200000000000003,-0.19999999999999707,179.0
180,1618666416.62,1618666416.61847,-138.2828064,-145.1399078,-36.82118607,-94.62320709,-2.4,87.8,-2.200000000000003,-0.19999999999999707,180.0
181,1618666416.653,1618666416.65345,-140.2574615,-170.092514,-45.65108871,-75.4076004,-2.3,87.9,-2.0999999999999943,-0.2000000000000055,181.0
182,1618666416.654,1618666416.65445,-144.3526611,-184.4574738,-45.96150208,-48.50276184,-2.3,87.9,-2.0999999999999943,-0.2000000000000055,182.0
183,1618666416.681,1618666416.68643,-137.9873505,-218.5728455,-60.23295975,-126.2178802,-2.3,87.8,-2.200000000000003,-0.09999999999999698,183.0
184,1618666416.727,1618666416.7216802,-156.8027802,-192.1429749,-58.9426918,-98.87547302,-2.3,87.8,-2.200000000000003,-0.09999999999999698,184.0
185,1618666416.727,1618666416.72268,-157.4647522,-142.3125458,-20.53017998,-132.4373322,-2.3,87.8,-2.200000000000003,-0.09999999999999698,185.0
186,1618666416.756,1618666416.75466,-156.9598541,-178.1856689,-71.34046173,-129.9428253,-2.2,87.8,-2.200000000000003,2.6645352591003757e-15,186.0
187,1618666416.756,1618666416.75566,-136.6334991,-184.5210571,-82.39186859,-129.7745209,-2.2,87.8,-2.200000000000003,2.6645352591003757e-15,187.0
188,1618666416.787,1618666416.79164,-159.0729065,-147.6830444,-22.05606079,-126.6105728,-2.2,87.8,-2.200000000000003,2.6645352591003757e-15,188.0
189,1618666416.787,1618666416.7936401,-161.3879089,-203.0335541,-70.37556458,-140.2986145,-2.2,87.8,-2.200000000000003,2.6645352591003757e-15,189.0
190,1618666416.816,1618666416.8166301,-175.8052216,-175.7322845,-71.81542969,-39.45220566,-2.1,87.8,-2.200000000000003,0.10000000000000275,190.0
191,1618666416.847,1618666416.84861,-164.9445496,-197.4237061,-86.42721558,-181.9274292,-2.1,87.8,-2.200000000000003,0.10000000000000275,191.0
192,1618666416.877,1618666416.88161,-205.8291321,-208.7481232,-111.0843811,-143.8627319,-2.0,87.9,-2.0999999999999943,0.09999999999999432,192.0
193,1618666416.877,1618666416.88259,-181.2729492,-259.8613281,-154.9646301,-160.613739,-2.0,87.9,-2.0999999999999943,0.09999999999999432,193.0
194,1618666416.921,1618666416.91557,-197.3096466,-184.9623566,-93.37969208,-94.07344055,-2.0,87.9,-2.0999999999999943,0.09999999999999432,194.0
195,1618666416.921,1618666416.9175699,-206.2891388,-169.812027,-69.07781982,-142.3630371,-2.0,87.9,-2.0999999999999943,0.09999999999999432,195.0
196,1618666416.95,1618666416.94755,-175.1507416,-206.1675873,-102.8977356,-164.8473053,-2.0,88.0,-2.0,0.0,196.0
197,1618666416.98,1618666416.9855301,-209.6700134,-222.5072174,-148.8985138,-144.8575439,-2.0,88.0,-2.0,0.0,197.0
198,1618666416.98,1618666416.98653,-193.5211182,-139.5936432,-49.11423492,-142.5462799,-2.0,88.0,-2.0,0.0,198.0
199,1618666417.026,1618666417.02051,-227.6925964,-187.931839,-100.3097229,-161.8479156,-1.9,87.9,-2.0999999999999943,0.1999999999999944,199.0
200,1618666417.026,1618666417.02151,-210.1711578,-180.1229248,-92.87854767,-180.6970062,-1.9,87.9,-2.0999999999999943,0.1999999999999944,200.0
201,1618666417.041,1618666417.0474901,-232.0271301,-230.6414948,-121.9338303,-135.9341431,-1.8,87.9,-2.0999999999999943,0.29999999999999427,201.0
202,1618666417.086,1618666417.0804698,-244.1967621,-200.4156342,-105.5194092,-152.4719849,-1.8,87.9,-2.0999999999999943,0.29999999999999427,202.0
203,1618666417.086,1618666417.08148,-219.8799438,-205.8235168,-114.498909,-169.9747162,-1.8,87.9,-2.0999999999999943,0.29999999999999427,203.0
204,1618666417.116,1618666417.11246,-216.0764618,-188.6162415,-101.6560898,-201.4646759,-1.8,87.9,-2.0999999999999943,0.29999999999999427,204.0
205,1618666417.116,1618666417.11346,-247.0054321,-207.4690857,-103.0024567,-184.0816193,-1.8,87.9,-2.0999999999999943,0.29999999999999427,205.0
206,1618666417.146,1618666417.14444,-235.4379272,-224.885788,-152.5748291,-173.680954,-1.7,87.8,-2.200000000000003,0.5000000000000029,206.0
207,1618666417.177,1618666417.17942,-248.3181305,-185.8524628,-104.6480103,-167.1323853,-1.6,87.8,-2.200000000000003,0.6000000000000028,207.0
208,1618666417.177,1618666417.1814198,-236.9675446,-200.4081421,-113.0328674,-152.7412567,-1.6,87.8,-2.200000000000003,0.6000000000000028,208.0
209,1618666417.221,1618666417.2144,-261.059967,-193.7249451,-120.5238876,-176.3026276,-1.5,87.9,-2.0999999999999943,0.5999999999999943,209.0
210,1618666417.221,1618666417.2174,-238.3924408,-216.4261475,-136.8597717,-188.9472198,-1.5,87.9,-2.0999999999999943,0.5999999999999943,210.0
211,1618666417.25,1618666417.24438,-280.4251709,-204.4135742,-130.7712097,-649.0241089,-1.5,87.9,-2.0999999999999943,0.5999999999999943,211.0
212,1618666417.28,1618666417.27936,-271.658844,-199.0281219,-117.0607376,-665.715271,-1.5,88.0,-2.0,0.5,212.0
213,1618666417.28,1618666417.28036,-269.2765503,-199.551712,-123.7588959,-644.0313721,-1.5,88.0,-2.0,0.5,213.0
214,1618666417.31,1618666417.31234,-284.3595581,-186.0731049,-108.5823822,-577.1619263,-1.5,87.9,-2.0999999999999943,0.5999999999999943,214.0
215,1618666417.31,1618666417.3150198,-306.7839966,-167.6354065,-97.11585236,-626.1060181,-1.5,87.9,-2.0999999999999943,0.5999999999999943,215.0
216,1618666417.341,1618666417.345,-271.0754395,-181.6712494,-111.2526703,-774.0302734,-1.5,87.9,-2.0999999999999943,0.5999999999999943,216.0
217,1618666417.386,1618666417.38098,-292.0076599,-206.7510223,-138.3407745,-677.2715454,-1.4,88.0,-2.0,0.6000000000000001,217.0
218,1618666417.386,1618666417.38298,-288.7763672,-188.7658386,-104.0683289,-675.6260376,-1.4,88.0,-2.0,0.6000000000000001,218.0
219,1618666417.4,1618666417.40696,-300.4560852,-203.5010529,-140.0536499,-652.9397583,-1.4,88.0,-2.0,0.6000000000000001,219.0
220,1618666417.446,1618666417.4409401,-313.0932007,-195.7519684,-126.8218765,-652.5021973,-1.4,88.0,-2.0,0.6000000000000001,220.0
221,1618666417.446,1618666417.44294,-322.3718872,-188.2385101,-113.2535172,-635.5230713,-1.4,88.0,-2.0,0.6000000000000001,221.0
222,1618666417.476,1618666417.4729302,-362.6954956,-177.3479309,-102.5798492,-620.1184082,-1.4,88.0,-2.0,0.6000000000000001,222.0
223,1618666417.476,1618666417.47593,-344.7477112,-194.334549,-116.7017059,-629.5429688,-1.4,88.0,-2.0,0.6000000000000001,223.0
224,1618666417.507,1618666417.51192,-363.2938843,-188.7770538,-111.7014618,-591.2127075,-1.4,88.0,-2.0,0.6000000000000001,224.0
225,1618666417.507,1618666417.5129,-331.4224548,-212.3047638,-120.4864883,-713.2793579,-1.4,88.0,-2.0,0.6000000000000001,225.0
226,1618666417.537,1618666417.53989,-326.3923035,-188.6312103,-113.5676727,-650.3966675,-1.4,88.0,-2.0,0.6000000000000001,226.0
227,1618666417.581,1618666417.57986,-348.2164612,-214.9694519,-109.6893921,-185.895462,-1.4,88.0,-2.0,0.6000000000000001,227.0
228,1618666417.581,1618666417.58086,-333.3765564,-168.5610352,-89.57621002,-153.1376801,-1.4,88.0,-2.0,0.6000000000000001,228.0
229,1618666417.611,1618666417.60485,-372.7576904,-193.1770477,-124.0730515,-177.7873688,-1.4,88.0,-2.0,0.6000000000000001,229.0
230,1618666417.641,1618666417.63783,-329.5207214,-205.7879944,-130.0344543,-150.6394348,-1.3,88.0,-2.0,0.7,230.0
231,1618666417.641,1618666417.6388302,-338.182312,-179.5563354,-91.03851318,-166.3245697,-1.3,88.0,-2.0,0.7,231.0
232,1618666417.671,1618666417.66881,-353.3513489,-154.8954315,-111.1292572,-101.6205597,-1.3,88.0,-2.0,0.7,232.0
233,1618666417.702,1618666417.70279,-354.0095825,-184.5378876,-97.68431854,-110.9590912,-1.3,88.0,-2.0,0.7,233.0
234,1618666417.702,1618666417.70379,-342.6514893,-189.7961884,-120.8903961,-179.6498413,-1.3,88.0,-2.0,0.7,234.0
235,1618666417.732,1618666417.73377,-333.1035461,-189.9233398,-83.15854645,-169.6231689,-1.3,88.0,-2.0,0.7,235.0
236,1618666417.732,1618666417.7347698,-339.4538879,-174.2643738,-86.14672852,-104.0514984,-1.3,88.0,-2.0,0.7,236.0
237,1618666417.776,1618666417.76875,-361.7137756,-178.5390778,-96.95129395,-131.9062653,-1.3,88.0,-2.0,0.7,237.0
238,1618666417.805,1618666417.80273,-366.9384155,-187.3764648,-88.63375854,-146.0131683,-1.3,88.0,-2.0,0.7,238.0
239,1618666417.805,1618666417.8047302,-333.4289246,-180.2332611,-105.0257416,-167.7158203,-1.3,88.0,-2.0,0.7,239.0
240,1618666417.835,1618666417.83372,-326.5325317,-164.3498993,-77.90024567,-164.2601471,-1.3,88.0,-2.0,0.7,240.0
241,1618666417.835,1618666417.8357198,-351.111145,-157.7789001,-62.16648865,-128.0691376,-1.3,88.0,-2.0,0.7,241.0
242,1618666417.865,1618666417.87069,-363.1424255,-167.5699615,-90.44013214,-138.2678375,-1.3,88.0,-2.0,0.7,242.0
243,1618666417.865,1618666417.87269,-317.6802063,-186.6247406,-82.24227142,-180.023819,-1.3,88.0,-2.0,0.7,243.0
244,1618666417.895,1618666417.90269,-342.0119934,-129.4753418,-49.11049652,-151.4921265,-1.3,87.9,-2.0999999999999943,0.7999999999999943,244.0
245,1618666417.942,1618666417.93966,-342.184021,-147.8270264,-48.29893875,-174.2157593,-1.3,87.9,-2.0999999999999943,0.7999999999999943,245.0
246,1618666417.944,1618666417.94366,-343.0105286,-148.3693085,-69.9753952,-151.7613983,-1.3,87.9,-2.0999999999999943,0.7999999999999943,246.0
247,1618666417.955,1618666417.96966,-332.8005981,-156.3166046,-61.02955627,-100.9660797,-1.3,87.9,-2.0999999999999943,0.7999999999999943,247.0
248,1618666418.001,1618666418.00362,-334.5546265,-148.6872101,-61.57184219,-119.7254181,-1.3,87.9,-2.0999999999999943,0.7999999999999943,248.0
249,1618666418.001,1618666418.0046198,-315.4325256,-189.6914673,-54.92977905,-141.3981323,-1.3,87.9,-2.0999999999999943,0.7999999999999943,249.0
250,1618666418.045,1618666418.0416,-322.2839966,-129.3369598,-29.58821869,-113.9659729,-1.3,87.9,-2.0999999999999943,0.7999999999999943,250.0
251,1618666418.045,1618666418.0436,-319.5763245,-156.2530212,-54.20423889,-149.9101563,-1.3,87.9,-2.0999999999999943,0.7999999999999943,251.0
252,1618666418.062,1618666418.0655801,-335.2390137,-116.5053635,-41.59703827,-96.56421661,-1.3,87.9,-2.0999999999999943,0.7999999999999943,252.0
253,1618666418.105,1618666418.0985599,-310.5668945,-130.2569733,-74.13417053,-140.9269104,-1.3,87.9,-2.0999999999999943,0.7999999999999943,253.0
254,1618666418.105,1618666418.09956,-315.6157532,-121.273735,-39.86546326,-201.431015,-1.3,87.9,-2.0999999999999943,0.7999999999999943,254.0
255,1618666418.135,1618666418.13154,-347.4759827,-121.4644699,-44.83205032,-101.3924255,-1.3,87.8,-2.200000000000003,0.9000000000000028,255.0
256,1618666418.135,1618666418.1335402,-339.5960083,-144.0497284,-61.88973618,-133.5667877,-1.3,87.8,-2.200000000000003,0.9000000000000028,256.0
257,1618666418.166,1618666418.16353,-318.2710876,-145.0220947,-66.92363739,-170.71521,-1.3,87.8,-2.200000000000003,0.9000000000000028,257.0
258,1618666418.195,1618666418.1965199,-341.881073,-139.0980988,-67.76885986,-140.863327,-1.3,87.8,-2.200000000000003,0.9000000000000028,258.0
259,1618666418.195,1618666418.19751,-321.6108398,-119.9685135,-50.49052048,-116.0490952,-1.3,87.8,-2.200000000000003,0.9000000000000028,259.0
260,1618666418.226,1618666418.22649,-306.4305725,-110.5925827,-48.24283981,-140.0779572,-1.3,87.8,-2.200000000000003,0.9000000000000028,260.0
261,1618666418.256,1618666418.26047,-320.7020264,-97.33463287,-31.95557594,-143.2867889,-1.2,87.8,-2.200000000000003,1.0000000000000029,261.0
262,1618666418.256,1618666418.2614698,-330.092926,-144.8463287,-74.02571106,-85.52403259,-1.2,87.8,-2.200000000000003,1.0000000000000029,262.0
263,1618666418.301,1618666418.29547,-323.8173828,-103.9243393,-39.59992981,-106.4151154,-1.2,87.8,-2.200000000000003,1.0000000000000029,263.0
264,1618666418.301,1618666418.29647,-309.2280273,-139.1915894,-56.59777451,-158.4146881,-1.2,87.8,-2.200000000000003,1.0000000000000029,264.0
265,1618666418.331,1618666418.32743,-300.2485046,-117.0775681,-40.11603546,-138.9148407,-1.2,87.9,-2.0999999999999943,0.8999999999999944,265.0
266,1618666418.362,1618666418.36641,-287.3309021,-127.0705795,-66.69550323,-136.0388641,-1.2,87.9,-2.0999999999999943,0.8999999999999944,266.0
267,1618666418.362,1618666418.3684099,-297.1331787,-102.3012238,-47.42006302,-95.0308609,-1.2,87.9,-2.0999999999999943,0.8999999999999944,267.0
268,1618666418.392,1618666418.39539,-324.5055237,-146.0318756,-41.4437027,-144.3264771,-1.2,87.9,-2.0999999999999943,0.8999999999999944,268.0
269,1618666418.392,1618666418.39639,-284.1744385,-89.39109039,-25.24619484,-125.4287643,-1.2,87.9,-2.0999999999999943,0.8999999999999944,269.0
270,1618666418.422,1618666418.42637,-293.5391235,-116.8681335,-32.66615677,-98.38555145,-1.2,87.9,-2.0999999999999943,0.8999999999999944,270.0
271,1618666418.465,1618666418.45935,-285.558197,-138.2640991,-41.58581924,-122.3433456,-1.2,87.9,-2.0999999999999943,0.8999999999999944,271.0
272,1618666418.465,1618666418.46135,-312.8108521,-125.7541351,-28.24559402,-185.7047272,-1.2,87.9,-2.0999999999999943,0.8999999999999944,272.0
273,1618666418.495,1618666418.4973302,-293.7410889,-113.1282349,-25.40701103,-105.6633911,-1.2,87.9,-2.0999999999999943,0.8999999999999944,273.0
274,1618666418.495,1618666418.49833,-272.8687134,-108.5281601,-25.75482178,-112.8701782,-1.2,87.9,-2.0999999999999943,0.8999999999999944,274.0
275,1618666418.526,1618666418.52332,-290.1844482,-126.2926788,-20.63863754,-83.93083191,-1.2,87.9,-2.0999999999999943,0.8999999999999944,275.0
276,1618666418.557,1618666418.5623,-269.7496338,-119.1980896,-4.721623898,-142.8323822,-1.2,87.9,-2.0999999999999943,0.8999999999999944,276.0
277,1618666418.571,1618666418.56429,-295.9700623,-80.18345642,-1.624986529,-182.7445984,-1.2,87.9,-2.0999999999999943,0.8999999999999944,277.0
278,1618666418.587,1618666418.59328,-299.6202087,-117.4478149,-27.15728378,-112.0268326,-1.2,87.9,-2.0999999999999943,0.8999999999999944,278.0
279,1618666418.601,1618666418.5952802,-270.2507935,-108.4870148,-26.75711441,-138.6175232,-1.2,87.9,-2.0999999999999943,0.8999999999999944,279.0
280,1618666418.617,1618666418.61897,-280.1016846,-147.266037,-33.77316666,-176.0202637,-1.2,88.0,-2.0,0.8,280.0
281,1618666418.66,1618666418.65995,-283.1796265,-131.3228455,-22.79281998,-160.2490997,-1.2,87.9,-2.0999999999999943,0.8999999999999944,281.0
282,1618666418.66,1618666418.66095,-292.0357056,-136.5811462,-41.99346542,-143.7711029,-1.2,87.9,-2.0999999999999943,0.8999999999999944,282.0
283,1618666418.69,1618666418.68895,-305.6003113,-119.2467117,-24.3635788,-103.8214951,-1.2,87.9,-2.0999999999999943,0.8999999999999944,283.0
284,1618666418.72,1618666418.7209198,-283.7331238,-117.7731857,-23.01347351,-125.1912842,-1.2,87.9,-2.0999999999999943,0.8999999999999944,284.0
285,1618666418.72,1618666418.72192,-293.7261353,-119.3589096,-26.77581406,-116.2491837,-1.2,87.9,-2.0999999999999943,0.8999999999999944,285.0
286,1618666418.751,1618666418.7519,-281.6126099,-116.9354553,-35.86003113,-161.2401733,-1.2,88.0,-2.0,0.8,286.0
287,1618666418.751,1618666418.7539,-247.7178802,-115.4432297,-7.84070015,-183.9451141,-1.2,88.0,-2.0,0.8,287.0
288,1618666418.781,1618666418.7848802,-277.4014587,-99.53369904,-19.66626358,-111.4284515,-1.2,88.1,-1.9000000000000057,0.7000000000000057,288.0
289,1618666418.811,1618666418.81586,-269.8805237,-99.24198151,-27.58737183,-129.4846802,-1.2,88.1,-1.9000000000000057,0.7000000000000057,289.0
290,1618666418.811,1618666418.81686,-254.7788086,-114.7737885,-29.02349281,-135.6891785,-1.2,88.1,-1.9000000000000057,0.7000000000000057,290.0
291,1618666418.856,1618666418.85184,-256.9816284,-146.5068359,-30.87848473,-202.0125732,-1.2,88.1,-1.9000000000000057,0.7000000000000057,291.0
292,1618666418.856,1618666418.85284,-248.7463531,-115.7461624,-32.93169022,-161.681488,-1.2,88.1,-1.9000000000000057,0.7000000000000057,292.0
293,1618666418.887,1618666418.88683,-254.206604,-124.7256622,-14.12747192,-130.9881287,-1.2,88.1,-1.9000000000000057,0.7000000000000057,293.0
294,1618666418.931,1618666418.9248,-261.6004028,-131.7753754,-23.33884621,-162.3733673,-1.1,88.1,-1.9000000000000057,0.8000000000000056,294.0
295,1618666418.931,1618666418.9258,-251.5699768,-124.6209488,-26.39808464,-142.8735352,-1.1,88.1,-1.9000000000000057,0.8000000000000056,295.0
296,1618666418.947,1618666418.95178,-245.3841858,-152.3149109,-21.46889496,-180.3548126,-1.1,88.2,-1.7999999999999972,0.6999999999999971,296.0
297,1618666418.947,1618666418.95278,-247.3289337,-97.80960083,-22.82647896,-138.2884064,-1.1,88.2,-1.7999999999999972,0.6999999999999971,297.0
298,1618666418.977,1618666418.98576,-271.2530823,-124.9163971,-45.53515244,-117.3300095,-1.1,88.2,-1.7999999999999972,0.6999999999999971,298.0
299,1618666419.021,1618666419.01974,-275.0827332,-136.3417969,-10.46984959,-100.7173767,-1.1,88.2,-1.7999999999999972,0.6999999999999971,299.0
300,1618666419.021,1618666419.02074,-257.5126953,-126.3151245,-24.00828743,-133.2283325,-1.1,88.2,-1.7999999999999972,0.6999999999999971,300.0
301,1618666419.05,1618666419.0487401,-239.1235962,-131.7417145,-13.08403969,-126.6199265,-1.1,88.2,-1.7999999999999972,0.6999999999999971,301.0
302,1618666419.081,1618666419.08371,-259.737915,-129.1387482,-31.54044533,-102.9426193,-1.1,88.2,-1.7999999999999972,0.6999999999999971,302.0
303,1618666419.081,1618666419.08472,-240.0174255,-123.8093872,-29.88367081,-177.9650116,-1.1,88.2,-1.7999999999999972,0.6999999999999971,303.0
304,1618666419.126,1618666419.1196802,-266.383728,-142.1685638,-39.83180618,-137.0430298,-1.1,88.2,-1.7999999999999972,0.6999999999999971,304.0
305,1618666419.126,1618666419.1226802,-223.91716,-136.0949554,-29.73407555,-169.8456879,-1.1,88.2,-1.7999999999999972,0.6999999999999971,305.0
306,1618666419.156,1618666419.14967,-225.4505157,-133.420929,-38.96040726,-144.2385864,-1.1,88.2,-1.7999999999999972,0.6999999999999971,306.0
307,1618666419.261,1618666419.25661,-242.7363434,-126.206665,-36.1367836,-119.035408,-1.1,88.2,-1.7999999999999972,0.6999999999999971,307.0
308,1618666419.261,1618666419.2576199,-204.0208893,-153.6687469,-31.77980042,-173.7576294,-1.1,88.2,-1.7999999999999972,0.6999999999999971,308.0
309,1618666419.247,1618666419.25961,-216.414917,-132.0895233,-39.83554459,-150.1289368,-1.1,88.2,-1.7999999999999972,0.6999999999999971,309.0
310,1618666419.247,1618666419.2606,-222.6867371,-142.5612488,-64.48148346,-153.6070404,-1.1,88.2,-1.7999999999999972,0.6999999999999971,310.0
311,1618666419.276,1618666419.2636,-221.3029633,-130.9563293,-27.04882622,-151.292038,-1.1,88.2,-1.7999999999999972,0.6999999999999971,311.0
312,1618666419.277,1618666419.2776,-216.6318359,-140.4631653,-41.05101013,-132.1998596,-1.1,88.2,-1.7999999999999972,0.6999999999999971,312.0
313,1618666419.277,1618666419.27859,-206.0965424,-120.4883575,-32.28094482,-174.4756775,-1.1,88.2,-1.7999999999999972,0.6999999999999971,313.0
314,1618666419.291,1618666419.2976,-216.3401184,-137.1271667,-38.69861603,-139.7282715,-1.1,88.2,-1.7999999999999972,0.6999999999999971,314.0
315,1618666419.336,1618666419.3355598,-210.6255493,-175.330246,-59.55977631,-158.4464722,-1.1,88.2,-1.7999999999999972,0.6999999999999971,315.0
316,1618666419.366,1618666419.35955,-203.8002319,-141.3495178,-48.67292786,-126.036499,-1.1,88.2,-1.7999999999999972,0.6999999999999971,316.0
317,1618666419.366,1618666419.3615599,-195.0226898,-158.4819946,-44.01675415,-149.0368805,-1.1,88.2,-1.7999999999999972,0.6999999999999971,317.0
318,1618666419.397,1618666419.39654,-196.5971985,-171.317337,-32.85314941,-196.9562225,-1.1,88.2,-1.7999999999999972,0.6999999999999971,318.0
319,1618666419.427,1618666419.42751,-208.8528442,-173.5650177,-68.09796906,-112.1988678,-1.1,88.2,-1.7999999999999972,0.6999999999999971,319.0
320,1618666419.427,1618666419.42851,-215.2069397,-128.9816742,-24.70764923,-196.5784912,-1.1,88.2,-1.7999999999999972,0.6999999999999971,320.0
321,1618666419.47,1618666419.4695,-228.1993408,-164.2863312,-45.75954437,-86.15046692,-1.1,88.2,-1.7999999999999972,0.6999999999999971,321.0
322,1618666419.47,1618666419.4705,-216.7664642,-152.8833771,-47.42380142,-136.5867615,-1.1,88.2,-1.7999999999999972,0.6999999999999971,322.0
323,1618666419.501,1618666419.4984698,-183.4177856,-167.5774384,-58.43032837,-175.840744,-1.1,88.2,-1.7999999999999972,0.6999999999999971,323.0
324,1618666419.501,1618666419.49947,-204.8698425,-163.6019287,-50.32970428,-152.9301147,-1.1,88.2,-1.7999999999999972,0.6999999999999971,324.0
325,1618666419.531,1618666419.52845,-219.7359467,-152.2924652,-40.79295731,-149.6053467,-1.1,88.2,-1.7999999999999972,0.6999999999999971,325.0
326,1618666419.578,1618666419.56743,-181.8675995,-160.6044006,-51.77891541,-190.7704315,-1.1,88.2,-1.7999999999999972,0.6999999999999971,326.0
327,1618666419.578,1618666419.5684302,-211.8354187,-156.4568481,-46.60663223,-176.259613,-1.1,88.2,-1.7999999999999972,0.6999999999999971,327.0
328,1618666419.606,1618666419.60041,-214.3037415,-154.3101349,-54.0415535,-137.5366974,-1.1,88.2,-1.7999999999999972,0.6999999999999971,328.0
329,1618666419.606,1618666419.60141,-225.3439331,-167.2576752,-62.1496582,-141.8749695,-1.1,88.2,-1.7999999999999972,0.6999999999999971,329.0
330,1618666419.622,1618666419.6274,-188.0758362,-176.8617401,-74.05375671,-177.254425,-1.1,88.2,-1.7999999999999972,0.6999999999999971,330.0
331,1618666419.653,1618666419.65838,-217.0563202,-161.4720459,-68.08861542,-148.5731354,-1.1,88.1,-1.9000000000000057,0.8000000000000056,331.0
332,1618666419.653,1618666419.65938,-216.087677,-166.4236755,-87.27056885,-217.3087616,-1.1,88.1,-1.9000000000000057,0.8000000000000056,332.0
333,1618666419.695,1618666419.69438,-196.6102753,-130.4794922,-61.05012512,-158.9588318,-1.1,88.1,-1.9000000000000057,0.8000000000000056,333.0
334,1618666419.725,1618666419.72737,-217.3405457,-134.5634766,-55.73572922,-128.1009216,-1.1,88.1,-1.9000000000000057,0.8000000000000056,334.0
335,1618666419.725,1618666419.7293699,-215.571579,-148.9658203,-68.1596756,-135.1880341,-1.1,88.1,-1.9000000000000057,0.8000000000000056,335.0
336,1618666419.756,1618666419.75737,-194.033493,-138.7933044,-87.51365662,-182.8081818,-1.1,88.1,-1.9000000000000057,0.8000000000000056,336.0
337,1618666419.756,1618666419.75835,-197.0029755,-140.0947876,-42.42542648,-148.0645142,-1.1,88.1,-1.9000000000000057,0.8000000000000056,337.0
338,1618666419.785,1618666419.79233,-225.9423218,-134.2979431,-72.64756012,-131.3097534,-1.1,88.1,-1.9000000000000057,0.8000000000000056,338.0
339,1618666419.816,1618666419.8220198,-196.0867004,-103.9823074,-44.66936493,-182.0901184,-1.1,88.1,-1.9000000000000057,0.8000000000000056,339.0
340,1618666419.831,1618666419.82402,-219.6630249,-154.5756683,-80.00393677,-118.773613,-1.1,88.1,-1.9000000000000057,0.8000000000000056,340.0
341,1618666419.861,1618666419.855,-193.9848633,-157.8817444,-58.56309509,-183.7506409,-1.1,88.0,-2.0,0.8999999999999999,341.0
342,1618666419.891,1618666419.88998,-222.8157654,-129.7090759,-64.47213745,-112.1240692,-1.1,88.0,-2.0,0.8999999999999999,342.0
343,1618666419.892,1618666419.89197,-186.2507629,-145.9888611,-83.80368042,-130.3934784,-1.1,88.0,-2.0,0.8999999999999999,343.0
344,1618666419.922,1618666419.92296,-214.3486328,-145.708374,-69.52474213,-146.2020416,-1.1,88.0,-2.0,0.8999999999999999,344.0
345,1618666419.922,1618666419.92396,-191.0415649,-143.0867004,-69.973526,-146.8340759,-1.1,88.0,-2.0,0.8999999999999999,345.0
346,1618666419.952,1618666419.95894,-189.8597565,-141.5196838,-74.17717743,-145.7046356,-1.1,88.0,-2.0,0.8999999999999999,346.0
347,1618666419.966,1618666419.95994,-208.0319366,-151.0526886,-81.63827515,-170.8442383,-1.1,88.0,-2.0,0.8999999999999999,347.0
348,1618666419.995,1618666419.99194,-187.5784149,-149.7661591,-68.82164001,-185.4036713,-1.1,88.0,-2.0,0.8999999999999999,348.0
349,1618666420.026,1618666420.0239,-211.8428955,-129.0695648,-69.71921539,-145.1249542,-1.1,88.0,-2.0,0.8999999999999999,349.0
350,1618666420.026,1618666420.0249,-188.7602234,-140.3827515,-62.57226563,-184.1732483,-1.1,88.0,-2.0,0.8999999999999999,350.0
351,1618666420.056,1618666420.04989,-178.8008728,-124.6789169,-65.42207336,-156.804657,-1.1,87.9,-2.0999999999999943,0.9999999999999942,351.0
352,1618666420.086,1618666420.0878599,-192.5001373,-131.2424316,-71.43209076,-146.6358643,-1.1,87.9,-2.0999999999999943,0.9999999999999942,352.0
353,1618666420.086,1618666420.08986,-186.688324,-152.6346741,-82.49845123,-147.200592,-1.1,87.9,-2.0999999999999943,0.9999999999999942,353.0
354,1618666420.116,1618666420.12185,-195.8061981,-116.6119537,-74.01635742,-117.1317978,-1.1,87.9,-2.0999999999999943,0.9999999999999942,354.0
355,1618666420.116,1618666420.12284,-221.8733063,-123.7813416,-65.90077972,-120.4453506,-1.1,87.9,-2.0999999999999943,0.9999999999999942,355.0
356,1618666420.145,1618666420.1528301,-169.3052673,-131.1414642,-70.32134247,-156.9654694,-1.1,87.9,-2.0999999999999943,0.9999999999999942,356.0
357,1618666420.176,1618666420.18281,-202.2463074,-102.4564285,-53.69748306,-127.4389572,-1.1,87.7,-2.299999999999997,1.199999999999997,357.0
358,1618666420.176,1618666420.18381,-217.4864044,-133.3367767,-75.50858307,-121.3092651,-1.1,87.7,-2.299999999999997,1.199999999999997,358.0
359,1618666420.22,1618666420.21679,-172.1550751,-165.8626862,-93.18334961,-217.6229095,-1.1,87.7,-2.299999999999997,1.199999999999997,359.0
360,1618666420.251,1618666420.25078,-185.2746429,-136.2800903,-77.16161346,-152.9151611,-1.0,87.5,-2.5,1.5,360.0
361,1618666420.252,1618666420.25277,-218.772934,-136.1080475,-75.52353668,-130.9357605,-1.0,87.5,-2.5,1.5,361.0
362,1618666420.282,1618666420.28476,-179.8405762,-140.4238892,-108.7301102,-135.9509735,-1.0,87.4,-2.5999999999999943,1.5999999999999943,362.0
363,1618666420.282,1618666420.28675,-169.9522705,-137.7536011,-118.4575882,-283.5012512,-1.0,87.4,-2.5999999999999943,1.5999999999999943,363.0
364,1618666420.326,1618666420.3217301,-179.0851135,-80.23394012,-69.09465027,-108.1261139,-1.0,87.3,-2.700000000000003,1.7000000000000028,364.0
365,1618666420.326,1618666420.32373,-184.8071594,-106.4319458,-79.36815643,-126.9826965,-1.0,87.3,-2.700000000000003,1.7000000000000028,365.0
366,1618666420.342,1618666420.34671,-162.7791443,-138.9615936,-76.45851135,-175.8070831,-1.0,87.3,-2.700000000000003,1.7000000000000028,366.0
367,1618666420.385,1618666420.38469,-176.411087,-45.07514572,-7.532158375,-81.92063904,-1.1,87.3,-2.700000000000003,1.6000000000000028,367.0
368,1618666420.385,1618666420.38569,-222.692337,-131.5565948,-47.52290726,-100.9754257,-1.1,87.3,-2.700000000000003,1.6000000000000028,368.0
369,1618666420.415,1618666420.4196699,-222.2884369,-112.4157791,-57.82259369,-81.62518311,-1.1,87.1,-2.9000000000000057,1.8000000000000056,369.0
370,1618666420.415,1618666420.42167,-161.2457886,-120.1386795,-65.41085052,-105.7961578,-1.1,87.1,-2.9000000000000057,1.8000000000000056,370.0
371,1618666420.446,1618666420.44766,-166.6125488,-99.55052948,-60.39938354,-190.7966003,-1.1,86.8,-3.200000000000003,2.1000000000000028,371.0
372,1618666420.475,1618666420.4776402,-232.2552643,-76.53517914,-89.80622101,-45.8081665,-1.1,86.8,-3.200000000000003,2.1000000000000028,372.0
373,1618666420.475,1618666420.47964,-171.2761993,-126.511467,-81.60461426,-160.9035797,-1.1,86.8,-3.200000000000003,2.1000000000000028,373.0
374,1618666420.506,1618666420.51163,-178.8831482,-117.6366806,-62.38153076,-197.6705475,-1.1,86.6,-3.4000000000000057,2.3000000000000056,374.0
375,1618666420.551,1618666420.5456,-177.5068665,-94.07157135,-50.20067596,47.39014053,-1.2,86.3,-3.700000000000003,2.5000000000000027,375.0
376,1618666420.551,1618666420.5476,-231.9186707,-114.5063858,-63.12203217,67.26396942,-1.2,86.3,-3.700000000000003,2.5000000000000027,376.0
377,1618666420.581,1618666420.5815802,-96.25754547,355.694397,-14.00031567,-607.8833618,-1.4,86.1,-3.9000000000000057,2.5000000000000058,377.0
378,1618666420.581,1618666420.58358,-46.35232162,227.4364014,-52.56803513,-687.3412476,-1.4,86.1,-3.9000000000000057,2.5000000000000058,378.0
379,1618666420.611,1618666420.61256,-185.2521973,268.8969421,-132.6542511,-1077.523193,-1.4,86.1,-3.9000000000000057,2.5000000000000058,379.0
380,1618666420.641,1618666420.64754,-198.2932281,397.3662415,-24.78057671,-1080.376709,-1.7,86.1,-3.9000000000000057,2.2000000000000055,380.0
381,1618666420.656,1618666420.64854,-244.6118927,537.9303589,51.17304993,-976.2541504,-1.7,86.1,-3.9000000000000057,2.2000000000000055,381.0
382,1618666420.686,1618666420.67852,-156.1258698,457.328064,-48.46910477,-995.9914551,-2.3,85.9,-4.099999999999994,1.7999999999999945,382.0
383,1618666420.686,1618666420.6805198,-211.4876099,383.6819458,10.48293972,-1069.562744,-2.3,85.9,-4.099999999999994,1.7999999999999945,383.0
384,1618666420.716,1618666420.7135,-169.6044617,531.0302734,81.70559692,-679.5828247,-3.1,85.8,-4.200000000000003,1.1000000000000028,384.0
385,1618666420.731,1618666420.7465,-307.5132751,311.3261108,-151.7950592,-479.3186646,-3.1,85.8,-4.200000000000003,1.1000000000000028,385.0
386,1618666420.763,1618666420.7474802,-187.5298004,145.1866608,96.18648529,-653.0669556,-3.1,85.8,-4.200000000000003,1.1000000000000028,386.0
387,1618666420.775,1618666420.77846,-227.7898254,-1057.224854,134.8495789,-448.692627,-4.8,85.8,-4.200000000000003,-0.599999999999997,387.0
388,1618666420.775,1618666420.78047,-340.0578918,-1198.525757,219.8126221,-680.9441528,-4.8,85.8,-4.200000000000003,-0.599999999999997,388.0
389,1618666420.807,1618666420.81045,-190.413269,-529.1378784,-91.76779175,-1162.323486,-6.6,86.0,-4.0,-2.5999999999999996,389.0
390,1618666420.837,1618666420.84243,-218.653244,-813.4712524,-158.7325745,-935.7883911,-9.3,86.3,-3.700000000000003,-5.599999999999998,390.0
391,1618666420.837,1618666420.84343,-317.3417358,-589.5447388,-198.1548615,-1032.356323,-9.3,86.3,-3.700000000000003,-5.599999999999998,391.0
392,1618666420.881,1618666420.87441,-115.4843674,-310.5295105,243.6787872,-745.5939331,-9.3,86.3,-3.700000000000003,-5.599999999999998,392.0
393,1618666420.91,1618666420.90639,-251.6391754,-771.5600586,50.42881012,-1046.818604,-12.3,86.5,-3.5,-8.8,393.0
394,1618666420.91,1618666420.90839,-201.6142731,-922.6071167,201.431015,-913.4331665,-12.3,86.5,-3.5,-8.8,394.0
395,1618666420.94,1618666420.9433699,-323.4564819,-425.5127258,416.3275452,-878.1584473,-14.8,86.8,-3.200000000000003,-11.599999999999998,395.0
396,1618666420.94,1618666420.9473698,-226.3424835,-426.4664001,355.3821106,-908.9957886,-14.8,86.8,-3.200000000000003,-11.599999999999998,396.0
397,1618666420.971,1618666420.97035,-349.6021118,-161.0513153,346.744812,-981.8041382,-14.8,86.8,-3.200000000000003,-11.599999999999998,397.0
398,1618666421.016,1618666421.01233,-346.5840149,23.34445572,418.4237366,-1584.042114,-17.9,86.9,-3.0999999999999943,-14.800000000000004,398.0
399,1618666421.016,1618666421.01296,-359.976593,-74.63718414,383.4145508,-1663.043701,-17.9,86.9,-3.0999999999999943,-14.800000000000004,399.0
400,1618666421.046,1618666421.0389302,-426.3523254,-16.50791931,758.666748,-1463.579956,-20.1,87.2,-2.799999999999997,-17.300000000000004,400.0
401,1618666421.046,1618666421.04093,-424.740448,207.2128906,848.3495483,-1472.204102,-20.1,87.2,-2.799999999999997,-17.300000000000004,401.0
402,1618666421.076,1618666421.07291,60.28157806,-69.388237,755.972168,-1643.242798,-22.6,87.7,-2.299999999999997,-20.300000000000004,402.0
403,1618666421.107,1618666421.10889,105.7961578,-695.7578735,583.6226196,-1547.722046,-25.1,88.2,-1.7999999999999972,-23.300000000000004,403.0
404,1618666421.107,1618666421.10989,242.4259186,-825.4520264,539.7629395,-1487.283447,-25.1,88.2,-1.7999999999999972,-23.300000000000004,404.0
405,1618666421.137,1618666421.1378698,126.4217072,-487.492218,1036.10376,-2141.104004,-25.1,88.2,-1.7999999999999972,-23.300000000000004,405.0
406,1618666421.137,1618666421.13987,280.2699585,-703.2564087,807.6463623,-2249.841553,-25.1,88.2,-1.7999999999999972,-23.300000000000004,406.0
407,1618666421.167,1618666421.17286,167.4110107,-548.0598755,403.8774109,-2654.799805,-27.1,88.7,-1.2999999999999972,-25.800000000000004,407.0
408,1618666421.211,1618666421.20684,208.2843781,-1012.142212,1297.507813,-2537.250977,-28.8,89.1,-0.9000000000000057,-27.899999999999995,408.0
409,1618666421.211,1618666421.20883,79.39994812,-1184.170166,1269.264038,-2620.340332,-28.8,89.1,-0.9000000000000057,-27.899999999999995,409.0
410,1618666421.241,1618666421.2448099,168.6564026,-1401.318115,1220.15918,-2743.274658,-29.5,88.8,-1.2000000000000028,-28.299999999999997,410.0
411,1618666421.257,1618666421.2578,276.5899048,-1462.521484,855.6928711,-3124.140381,-29.5,88.8,-1.2000000000000028,-28.299999999999997,411.0
412,1618666421.272,1618666421.2668,218.9356079,-1491.928345,1126.369995,-3127.689453,-29.5,88.8,-1.2000000000000028,-28.299999999999997,412.0
413,1618666421.317,1618666421.30777,347.3562927,-880.3930054,1486.397095,-3140.666992,-29.6,89.1,-0.9000000000000057,-28.699999999999996,413.0
414,1618666421.317,1618666421.3097699,233.2968292,-645.2636108,1440.134521,-3116.279053,-29.6,89.1,-0.9000000000000057,-28.699999999999996,414.0
415,1618666421.346,1618666421.33876,201.2720642,-164.0974579,1468.578247,-3019.759766,-29.9,89.4,-0.5999999999999943,-29.300000000000004,415.0
416,1618666421.346,1618666421.34076,185.6542511,-125.1837997,1264.275024,-3132.203613,-29.9,89.4,-0.5999999999999943,-29.300000000000004,416.0
417,1618666421.36,1618666421.3647401,130.1129913,-225.7029572,974.0644531,-2949.296387,-29.9,89.4,-0.5999999999999943,-29.300000000000004,417.0
418,1618666421.406,1618666421.4017198,266.5033875,-85.02662659,1051.93103,-2650.132324,-30.4,89.6,-0.4000000000000057,-29.999999999999993,418.0
419,1618666421.406,1618666421.40372,250.5340271,-129.1537018,911.7446289,-2634.645508,-30.4,89.6,-0.4000000000000057,-29.999999999999993,419.0
420,1618666421.436,1618666421.4357,194.2709656,142.1105957,692.3209229,-2505.020508,-30.9,89.5,-0.5,-30.4,420.0
421,1618666421.467,1618666421.46768,307.1411438,439.6083984,1011.760742,-2708.351318,-31.2,89.5,-0.5,-30.7,421.0
422,1618666421.467,1618666421.4686801,145.9140625,654.3777466,1242.914551,-2473.848389,-31.2,89.5,-0.5,-30.7,422.0
423,1618666421.497,1618666421.5016599,241.0197296,763.6651611,1361.858398,-2594.086182,-31.2,89.5,-0.5,-30.7,423.0
424,1618666421.511,1618666421.50466,209.9411469,978.8253174,1332.242065,-2496.467285,-31.2,89.5,-0.5,-30.7,424.0
425,1618666421.527,1618666421.53265,155.331131,732.3322754,1138.7677,-2580.779785,-31.4,89.6,-0.4000000000000057,-30.999999999999993,425.0
426,1618666421.571,1618666421.5696301,-279.0021362,-231.8064728,-175.3695221,-110.9777908,-31.4,89.6,-0.4000000000000057,-30.999999999999993,426.0
427,1618666421.572,1618666421.57162,-272.4199219,-175.9660339,-138.1425476,-177.9893188,-31.4,89.6,-0.4000000000000057,-30.999999999999993,427.0
428,1618666421.601,1618666421.59761,-235.3051605,-166.2535095,-146.3217163,-116.3744659,-31.3,89.6,-0.4000000000000057,-30.899999999999995,428.0
429,1618666421.601,1618666421.5996099,-282.8841553,-271.658844,-257.0751038,-81.65697479,-31.3,89.6,-0.4000000000000057,-30.899999999999995,429.0
430,1618666421.631,1618666421.6286,-266.7240601,-260.8617554,-290.6968079,-111.4639816,-31.3,89.6,-0.4000000000000057,-30.899999999999995,430.0
431,1618666421.662,1618666421.66259,-300.8805542,250.8780975,-208.8453674,-133.2414093,-31.0,89.4,-0.5999999999999943,-30.400000000000006,431.0
432,1618666421.662,1618666421.66357,-252.276825,472.1231079,-415.9105225,-150.5010529,-31.0,89.4,-0.5999999999999943,-30.400000000000006,432.0
433,1618666421.692,1618666421.69655,-271.2642822,239.9875031,-189.7756195,-145.3474731,-30.4,89.0,-1.0,-29.4,433.0
434,1618666421.722,1618666421.72755,-258.7543335,784.086853,-80.70890808,-182.2976837,-30.4,89.0,-1.0,-29.4,434.0
435,1618666421.736,1618666421.72954,-301.3218689,566.9314575,100.8033905,-112.7243271,-30.4,89.0,-1.0,-29.4,435.0
436,1618666421.766,1618666421.76951,-320.3841248,715.6672363,297.6717224,-80.17597198,-29.3,88.3,-1.7000000000000028,-27.599999999999998,436.0
437,1618666421.766,1618666421.77151,-299.5192261,738.0281372,335.7401733,-100.3153381,-29.3,88.3,-1.7000000000000028,-27.599999999999998,437.0
438,1618666421.796,1618666421.7945,-246.057373,848.2953491,358.8564758,-174.5486145,-27.0,87.2,-2.799999999999997,-24.200000000000003,438.0
439,1618666421.826,1618666421.83247,-287.521637,708.9466553,274.0131226,-94.17442322,-24.7,86.8,-3.200000000000003,-21.499999999999996,439.0
440,1618666421.841,1618666421.83547,-206.2610931,909.0649414,451.082428,-179.9602509,-24.7,86.8,-3.200000000000003,-21.499999999999996,440.0
441,1618666421.872,1618666421.86346,-253.1257782,708.1444702,265.9349365,-167.7345123,-21.7,86.3,-3.700000000000003,-17.999999999999996,441.0
442,1618666421.872,1618666421.86446,-265.9910278,758.8500366,302.8627014,-134.2773743,-21.7,86.3,-3.700000000000003,-17.999999999999996,442.0
443,1618666421.886,1618666421.8914402,-296.2580566,1288.126221,316.326355,-590.4497681,-21.7,86.3,-3.700000000000003,-17.999999999999996,443.0
444,1618666421.92,1618666421.9244199,-290.105896,1254.014648,324.9767456,-587.8729858,-19.4,86.2,-3.799999999999997,-15.600000000000001,444.0
445,1618666421.92,1618666421.9254198,-243.510498,1289.491333,301.0563354,-622.0856323,-19.4,86.2,-3.799999999999997,-15.600000000000001,445.0
446,1618666421.945,1618666421.9614,-292.1591187,1313.314453,353.9460144,-585.6103516,-16.5,85.7,-4.299999999999997,-12.200000000000003,446.0
447,1618666421.978,1618666421.9624,-203.0485229,1417.104248,239.2582245,-731.9489136,-16.5,85.7,-4.299999999999997,-12.200000000000003,447.0
448,1618666421.991,1618666421.99338,-198.4559174,1296.45874,350.7783203,-1071.275635,-13.6,85.8,-4.200000000000003,-9.399999999999997,448.0
449,1618666422.022,1618666422.02636,-285.4534607,1108.5625,310.1368103,-1103.023682,-13.6,85.8,-4.200000000000003,-9.399999999999997,449.0
450,1618666422.022,1618666422.02736,-183.1559906,1183.6073,329.0083618,-1105.286255,-13.6,85.8,-4.200000000000003,-9.399999999999997,450.0
451,1618666422.066,1618666422.06234,-246.8165741,1297.700439,365.6481628,-1538.910889,-10.6,85.9,-4.099999999999994,-6.500000000000005,451.0
452,1618666422.066,1618666422.06534,-191.8886566,1422.788818,354.4209595,-1645.124023,-10.6,85.9,-4.099999999999994,-6.500000000000005,452.0
453,1618666422.082,1618666422.08733,-257.894165,1223.089355,403.092041,-1616.599854,-8.3,85.8,-4.200000000000003,-4.099999999999998,453.0
454,1618666422.125,1618666422.12431,-234.7703552,1302.31543,392.6315308,-1575.797485,-5.9,86.1,-3.9000000000000057,-1.9999999999999947,454.0
455,1618666422.125,1618666422.1263,-196.585968,1264.067505,351.2196045,-1625.508301,-5.9,86.1,-3.9000000000000057,-1.9999999999999947,455.0
456,1618666422.155,1618666422.1582901,-217.8473053,1254.224121,398.1254272,-1512.039673,-5.9,86.1,-3.9000000000000057,-1.9999999999999947,456.0
457,1618666422.155,1618666422.15929,-230.6639404,1200.152588,312.8781738,-1717.988525,-5.9,86.1,-3.9000000000000057,-1.9999999999999947,457.0
458,1618666422.186,1618666422.18927,-114.5924072,1203.380127,359.6269226,-1637.621826,-4.7,86.5,-3.5,-1.2000000000000002,458.0
459,1618666422.231,1618666422.22513,-83.08748627,1225.374512,389.6957092,-1585.349243,-4.1,87.5,-2.5,-1.5999999999999996,459.0
460,1618666422.231,1618666422.2271302,-23.5819397,1256.258545,381.7745972,-1653.796875,-4.1,87.5,-2.5,-1.5999999999999996,460.0
461,1618666422.261,1618666422.26111,-130.6403198,1275.347046,453.3899536,-1501.650269,-3.9,87.8,-2.200000000000003,-1.699999999999997,461.0
462,1618666422.262,1618666422.26211,-82.37316895,1257.111328,437.3495178,-1630.19812,-3.9,87.8,-2.200000000000003,-1.699999999999997,462.0
463,1618666422.291,1618666422.2881,-105.9644547,1249.702515,425.5875244,-1572.40918,-3.9,87.8,-2.200000000000003,-1.699999999999997,463.0
464,1618666422.322,1618666422.32408,-77.97130585,1274.913208,446.6094971,-1619.221436,-3.4,88.1,-1.9000000000000057,-1.4999999999999942,464.0
465,1618666422.322,1618666422.3260698,-73.71530151,1249.466919,429.5854797,-1533.772217,-3.4,88.1,-1.9000000000000057,-1.4999999999999942,465.0
466,1618666422.366,1618666422.35905,-102.2806549,1255.80603,461.4942932,-2122.673828,-3.0,88.7,-1.2999999999999972,-1.7000000000000028,466.0
467,1618666422.366,1618666422.36206,-110.8375473,1228.209351,421.0585022,-2020.338867,-3.0,88.7,-1.2999999999999972,-1.7000000000000028,467.0
468,1618666422.382,1618666422.38504,-83.25204468,1245.450317,459.0932922,-2081.572266,-2.6,89.2,-0.7999999999999972,-1.800000000000003,468.0
469,1618666422.412,1618666422.4168801,-124.8995667,1255.753662,439.9487305,-2039.337524,-2.6,89.2,-0.7999999999999972,-1.800000000000003,469.0
470,1618666422.456,1618666422.45086,-143.5429688,1255.757446,393.813324,-2089.702881,-2.4,89.3,-0.7000000000000028,-1.699999999999997,470.0
471,1618666422.456,1618666422.4528599,-144.9267273,1235.633057,461.8869934,-2042.568848,-2.4,89.3,-0.7000000000000028,-1.699999999999997,471.0
472,1618666422.486,1618666422.4818401,-137.0280609,1299.978027,468.1924744,-2084.291016,-2.2,89.5,-0.5,-1.7000000000000002,472.0
473,1618666422.486,1618666422.48284,-159.0224152,1251.669678,438.4826965,-2056.544922,-2.2,89.5,-0.5,-1.7000000000000002,473.0
474,1618666422.516,1618666422.51382,-133.912735,1248.292603,427.797821,-2093.162109,-2.2,89.5,-0.5,-1.7000000000000002,474.0
475,1618666422.561,1618666422.5558,-191.237915,1270.066284,421.9560852,-2088.621826,-2.1,89.5,-0.5,-1.6,475.0
476,1618666422.561,1618666422.5578,-165.380249,1265.836426,418.2909851,-2116.596436,-2.1,89.5,-0.5,-1.6,476.0
477,1618666422.577,1618666422.5827901,-157.7620697,-169.641861,-52.50258636,-195.9801025,-1.9,89.6,-0.4000000000000057,-1.4999999999999942,477.0
478,1618666422.59,1618666422.58379,-189.9065094,-309.0391541,-199.8808289,-162.5341797,-1.9,89.6,-0.4000000000000057,-1.4999999999999942,478.0
479,1618666422.621,1618666422.61676,-186.1628723,-202.6128235,-71.66583252,-149.2650146,-1.7,90.0,0.0,-1.7,479.0
480,1618666422.651,1618666422.6507401,-208.0151062,-185.3120422,-77.53747559,-112.7374115,-1.6,89.9,-0.09999999999999432,-1.5000000000000058,480.0
481,1618666422.651,1618666422.65374,-187.6214294,-200.5708313,-77.65341187,-150.4842224,-1.6,89.9,-0.09999999999999432,-1.5000000000000058,481.0
482,1618666422.681,1618666422.68073,-173.9932404,-218.1259308,-107.2509842,-135.9621887,-1.6,89.9,-0.09999999999999432,-1.5000000000000058,482.0
483,1618666422.681,1618666422.68273,-199.847168,-184.8969116,-70.27085114,-224.2387848,-1.6,89.9,-0.09999999999999432,-1.5000000000000058,483.0
484,1618666422.711,1618666422.71371,-226.8417664,-179.7283783,-56.39208221,-45.63986969,-1.6,90.0,0.0,-1.6,484.0
485,1618666422.756,1618666422.75069,-232.1561584,-194.6767578,-80.97444153,-136.4558563,-1.5,90.1,0.09999999999999432,-1.5999999999999943,485.0
486,1618666422.756,1618666422.75368,-201.3319092,-194.426178,-75.48801422,-149.5866547,-1.5,90.1,0.09999999999999432,-1.5999999999999943,486.0
487,1618666422.786,1618666422.7846699,-204.6865997,-205.470108,-89.37425995,-174.7711334,-1.5,90.1,0.09999999999999432,-1.5999999999999943,487.0
488,1618666422.787,1618666422.78667,-221.7891541,-163.97966,-91.40502167,-164.0077057,-1.5,90.1,0.09999999999999432,-1.5999999999999943,488.0
489,1618666422.816,1618666422.81465,-227.7056732,-168.1421661,-62.83218765,-109.3191452,-1.5,90.1,0.09999999999999432,-1.5999999999999943,489.0
490,1618666422.847,1618666422.85063,-230.0244141,-181.3140869,-71.47883606,-156.4755402,-1.4,90.1,0.09999999999999432,-1.4999999999999942,490.0
491,1618666422.847,1618666422.8526301,-202.6333923,-188.2815247,-75.09532166,-150.2299042,-1.4,90.1,0.09999999999999432,-1.4999999999999942,491.0
492,1618666422.877,1618666422.8826098,-231.0379333,-182.2528076,-92.86732483,-145.0987701,-1.4,90.0,0.0,-1.4,492.0
493,1618666422.891,1618666422.88461,-230.1179199,-164.7500763,-89.20596313,-90.3802948,-1.4,90.0,0.0,-1.4,493.0
494,1618666422.907,1618666422.9086,-211.1229553,-199.598465,-119.790863,-149.8895874,-1.4,90.0,0.0,-1.4,494.0
495,1618666422.95,1618666422.94558,-215.3490448,-186.669632,-87.586586,-166.846283,-1.4,90.1,0.09999999999999432,-1.4999999999999942,495.0
496,1618666422.95,1618666422.94957,-201.934021,-201.2178345,-94.71483612,-189.4614563,-1.4,90.1,0.09999999999999432,-1.4999999999999942,496.0
497,1618666422.981,1618666422.9765599,-210.4759521,-180.7194519,-104.1206818,-172.4075165,-1.3,90.0,0.0,-1.3,497.0
498,1618666423.011,1618666423.01154,-221.1496277,-181.183197,-103.5970993,-145.5026703,-1.3,90.0,0.0,-1.3,498.0
499,1618666423.011,1618666423.01553,-209.3689423,-195.7762756,-95.9041214,-154.938446,-1.3,90.0,0.0,-1.3,499.0
500,1618666423.041,1618666423.03952,-241.5021667,-186.2208405,-88.78709412,-119.3308563,-1.3,89.9,-0.09999999999999432,-1.2000000000000057,500.0
501,1618666423.041,1618666423.04052,-240.18573,-184.6239014,-95.54135132,-144.6649475,-1.3,89.9,-0.09999999999999432,-1.2000000000000057,501.0
502,1618666423.071,1618666423.0775,-195.2695313,-208.7986145,-113.0478287,-204.2415466,-1.3,89.8,-0.20000000000000284,-1.0999999999999972,502.0
503,1618666423.071,1618666423.0785,-220.5811768,-170.8573303,-79.66173553,-135.0384369,-1.3,89.8,-0.20000000000000284,-1.0999999999999972,503.0
504,1618666423.116,1618666423.11048,-212.1813507,-182.473465,-102.1721954,-135.2254333,-1.3,89.7,-0.29999999999999716,-1.0000000000000029,504.0
505,1618666423.146,1618666423.14446,-238.7383881,-203.2336426,-108.4327927,-143.3821564,-1.3,89.7,-0.29999999999999716,-1.0000000000000029,505.0
506,1618666423.146,1618666423.14646,-241.7153473,-160.595047,-101.3980408,-137.1439972,-1.3,89.7,-0.29999999999999716,-1.0000000000000029,506.0
507,1618666423.177,1618666423.18144,-258.802948,-172.3944244,-104.7901306,-138.0228729,-1.3,89.6,-0.4000000000000057,-0.8999999999999944,507.0
508,1618666423.177,1618666423.18344,-238.5775604,-209.7074127,-113.8332062,-142.7164459,-1.3,89.6,-0.4000000000000057,-0.8999999999999944,508.0
509,1618666423.207,1618666423.2074199,-212.4693298,-192.5861511,-110.9459991,-116.3800735,-1.3,89.5,-0.5,-0.8,509.0
510,1618666423.251,1618666423.2504,-215.0685577,-195.6865234,-118.9007721,-187.598999,-1.2,89.4,-0.5999999999999943,-0.6000000000000056,510.0
511,1618666423.251,1618666423.2524,-246.5734711,-198.88414,-125.142662,-138.1463013,-1.2,89.4,-0.5999999999999943,-0.6000000000000056,511.0
512,1618666423.267,1618666423.27039,-222.4735565,-174.458847,-121.8739929,-117.7376633,-1.2,89.4,-0.5999999999999943,-0.6000000000000056,512.0
513,1618666423.311,1618666423.30637,-224.1490326,-195.002121,-127.9363708,-117.9470978,-1.2,89.4,-0.5999999999999943,-0.6000000000000056,513.0
514,1618666423.311,1618666423.30737,-256.4767151,-190.308548,-108.0027008,-117.7114792,-1.2,89.4,-0.5999999999999943,-0.6000000000000056,514.0
515,1618666423.341,1618666423.34035,-250.6125641,-184.3920288,-103.5110779,-148.2702026,-1.2,89.3,-0.7000000000000028,-0.4999999999999971,515.0
516,1618666423.341,1618666423.34135,-244.2135925,-179.7470703,-125.4904709,-134.0772858,-1.2,89.3,-0.7000000000000028,-0.4999999999999971,516.0
517,1618666423.371,1618666423.3693302,-247.8001556,-196.4419861,-99.53930664,-139.4029083,-1.2,89.3,-0.7000000000000028,-0.4999999999999971,517.0
518,1618666423.401,1618666423.3993099,-239.9538574,-182.6567078,-106.6189346,-129.7015991,-1.2,89.3,-0.7000000000000028,-0.4999999999999971,518.0
519,1618666423.401,1618666423.40031,-229.5718842,-176.4260406,-118.9680862,-162.7062225,-1.2,89.3,-0.7000000000000028,-0.4999999999999971,519.0
520,1618666423.431,1618666423.43729,-250.3919067,-201.2066193,-119.3383408,-123.6205215,-1.2,89.2,-0.7999999999999972,-0.4000000000000028,520.0
521,1618666423.476,1618666423.4712698,-253.6942444,-193.450058,-127.192131,-162.7884979,-1.2,89.2,-0.7999999999999972,-0.4000000000000028,521.0
522,1618666423.476,1618666423.47327,-271.7018738,-186.4452362,-122.9585571,-151.0676422,-1.2,89.2,-0.7999999999999972,-0.4000000000000028,522.0
523,1618666423.491,1618666423.49826,-255.0293884,-186.7444305,-130.5692596,-123.1193771,-1.2,89.2,-0.7999999999999972,-0.4000000000000028,523.0
524,1618666423.506,1618666423.49926,-240.0211639,-205.8927155,-120.9128342,-140.3752747,-1.2,89.2,-0.7999999999999972,-0.4000000000000028,524.0
525,1618666423.537,1618666423.5334,-258.3803406,-202.1976929,-121.5112228,-143.2924042,-1.2,89.2,-0.7999999999999972,-0.4000000000000028,525.0
526,1618666423.566,1618666423.56238,-237.7660065,-186.0263672,-111.7052002,-160.6118774,-1.2,89.2,-0.7999999999999972,-0.4000000000000028,526.0
527,1618666423.566,1618666423.56338,-243.2337494,-213.1705627,-130.7225952,-132.5888062,-1.2,89.2,-0.7999999999999972,-0.4000000000000028,527.0
528,1618666423.596,1618666423.59936,-272.9005127,-177.1366272,-117.2103348,-144.6462402,-1.2,89.2,-0.7999999999999972,-0.4000000000000028,528.0
529,1618666423.596,1618666423.60036,-244.2378998,-188.0683441,-123.3175888,-127.8653107,-1.2,89.2,-0.7999999999999972,-0.4000000000000028,529.0
530,1618666423.626,1618666423.63335,-256.6955261,-187.9524078,-124.3236237,-131.5939941,-1.1,89.2,-0.7999999999999972,-0.30000000000000293,530.0
531,1618666423.671,1618666423.66432,-274.048645,-169.1556702,-98.82124329,-124.2151642,-1.1,89.2,-0.7999999999999972,-0.30000000000000293,531.0
532,1618666423.671,1618666423.6663198,-309.0054932,-190.491806,-122.1058655,-95.5675354,-1.1,89.2,-0.7999999999999972,-0.30000000000000293,532.0
533,1618666423.701,1618666423.6973,-275.7503052,-189.9756927,-121.8590317,-128.7180023,-1.1,89.2,-0.7999999999999972,-0.30000000000000293,533.0
534,1618666423.701,1618666423.6983,-267.0475464,-186.1609955,-116.5745544,-143.3522339,-1.1,89.2,-0.7999999999999972,-0.30000000000000293,534.0
535,1618666423.731,1618666423.7293,-283.2450562,-191.6324768,-115.3029861,-120.2508698,-1.1,89.2,-0.7999999999999972,-0.30000000000000293,535.0
536,1618666423.762,1618666423.76227,-292.6471863,-188.8799133,-137.7349091,-127.192131,-1.1,89.2,-0.7999999999999972,-0.30000000000000293,536.0
537,1618666423.762,1618666423.7642698,-307.3487244,-186.3779144,-113.1114044,-101.8356094,-1.1,89.2,-0.7999999999999972,-0.30000000000000293,537.0
538,1618666423.792,1618666423.79726,-292.9874878,-171.7287292,-107.3556976,-141.6056976,-1.1,89.2,-0.7999999999999972,-0.30000000000000293,538.0
539,1618666423.836,1618666423.8352199,-298.1934509,-192.2832184,-125.7560043,-154.4821777,-1.1,89.2,-0.7999999999999972,-0.30000000000000293,539.0
540,1618666423.836,1618666423.83622,-285.545105,-173.3480988,-119.7833862,-140.0648651,-1.1,89.1,-0.9000000000000057,-0.1999999999999944,540.0
541,1618666423.866,1618666423.86321,-314.009491,-184.8183746,-123.8523941,-126.0103226,-1.1,89.1,-0.9000000000000057,-0.1999999999999944,541.0
542,1618666423.866,1618666423.86422,-315.4306335,-176.5157928,-131.646347,-122.651886,-1.1,89.1,-0.9000000000000057,-0.1999999999999944,542.0
543,1618666423.896,1618666423.8942,-294.4273682,-161.0700073,-120.187294,-147.2192993,-1.1,89.1,-0.9000000000000057,-0.1999999999999944,543.0
544,1618666423.926,1618666423.9279401,-324.4064026,-163.4149323,-138.94664,-95.63858795,-1.1,89.1,-0.9000000000000057,-0.1999999999999944,544.0
545,1618666423.926,1618666423.9309402,-310.5799866,-164.9894257,-134.8888397,-106.0168152,-1.1,89.1,-0.9000000000000057,-0.1999999999999944,545.0
546,1618666423.956,1618666423.9569302,-281.5957642,-161.6347351,-160.9783783,-118.717514,-1.1,89.1,-0.9000000000000057,-0.1999999999999944,546.0
547,1618666423.986,1618666423.99291,-326.79245,-173.0825653,-145.0950317,-118.4071045,-1.1,89.0,-1.0,-0.10000000000000009,547.0
548,1618666424.001,1618666423.99491,-279.894104,-151.4996033,-126.0327606,-146.2880554,-1.1,89.0,-1.0,-0.10000000000000009,548.0
549,1618666424.031,1618666424.02988,-316.6498413,-163.9908752,-134.8439636,-200.2174072,-1.1,89.0,-1.0,-0.10000000000000009,549.0
550,1618666424.031,1618666424.03088,-296.8059387,-131.2293549,-110.1307068,-107.6698532,-1.1,89.0,-1.0,-0.10000000000000009,550.0
551,1618666424.062,1618666424.06287,-325.7453003,-172.6936188,-133.4115753,-118.6053162,-1.1,89.0,-1.0,-0.10000000000000009,551.0
552,1618666424.062,1618666424.06387,-297.8456421,-188.4722595,-158.4502106,-203.2392578,-1.1,89.0,-1.0,-0.10000000000000009,552.0
553,1618666424.092,1618666424.08885,-291.7121887,-88.29155731,-70.24092865,-110.1157455,-1.1,89.0,-1.0,-0.10000000000000009,553.0
554,1618666424.122,1618666424.12683,-297.6025391,-147.0379028,-120.583725,-102.0861816,-1.1,88.9,-1.0999999999999943,-5.773159728050814e-15,554.0
555,1618666424.122,1618666424.12783,-275.7054138,-116.2772293,-126.5152054,-195.4565277,-1.1,88.9,-1.0999999999999943,-5.773159728050814e-15,555.0
556,1618666424.152,1618666424.1558099,-309.2448425,-155.920166,-86.35241699,-101.3793411,-1.1,88.9,-1.0999999999999943,-5.773159728050814e-15,556.0
557,1618666424.196,1618666424.18879,-280.2381897,-141.0391083,-99.89459991,-109.9474487,-1.0,88.9,-1.0999999999999943,0.09999999999999432,557.0
558,1618666424.196,1618666424.1898,-271.1128235,-140.8072357,-102.0973969,-149.9008026,-1.0,88.9,-1.0999999999999943,0.09999999999999432,558.0
559,1618666424.226,1618666424.22577,-277.2275696,-155.9426117,-125.9766617,-138.6923218,-1.0,88.9,-1.0999999999999943,0.09999999999999432,559.0
560,1618666424.226,1618666424.22677,-252.2487793,-114.0781708,-91.05721283,-165.8327789,-1.0,88.9,-1.0999999999999943,0.09999999999999432,560.0
561,1618666424.256,1618666424.25775,-291.2297363,-145.3848724,-92.51577759,-123.7701187,-1.0,88.9,-1.0999999999999943,0.09999999999999432,561.0
562,1618666424.256,1618666424.25976,-312.7453918,-136.5474854,-96.43144989,-111.6042252,-1.0,88.9,-1.0999999999999943,0.09999999999999432,562.0
563,1618666424.286,1618666424.2917302,-285.9265747,-135.6424255,-106.5777969,-121.2494278,-1.0,88.9,-1.0999999999999943,0.09999999999999432,563.0
564,1618666424.331,1618666424.32372,-273.296936,-88.41497803,-76.44168854,-105.6241226,-1.0,88.9,-1.0999999999999943,0.09999999999999432,564.0
565,1618666424.331,1618666424.32472,-255.0873566,-107.5707397,-69.35831451,-169.1949463,-1.0,88.9,-1.0999999999999943,0.09999999999999432,565.0
566,1618666424.361,1618666424.3557,-292.5798645,-128.1738586,-71.47883606,-112.9431076,-1.0,88.9,-1.0999999999999943,0.09999999999999432,566.0
567,1618666424.391,1618666424.38768,-268.2592773,-141.001709,-74.44084167,-125.0865631,-1.0,88.9,-1.0999999999999943,0.09999999999999432,567.0
568,1618666424.391,1618666424.38868,-269.0184937,-117.4964371,-68.58415222,-141.7141571,-1.0,88.9,-1.0999999999999943,0.09999999999999432,568.0
569,1618666424.421,1618666424.41768,-302.0829468,-128.8246002,-55.66654205,-117.4384689,-1.0,88.9,-1.0999999999999943,0.09999999999999432,569.0
570,1618666424.452,1618666424.45466,-292.0861816,-126.7751312,-65.24068451,-96.75682068,-1.0,88.9,-1.0999999999999943,0.09999999999999432,570.0
571,1618666424.452,1618666424.45664,-285.2982788,-132.9197845,-72.25673676,-112.9805069,-1.0,88.9,-1.0999999999999943,0.09999999999999432,571.0
572,1618666424.482,1618666424.48662,-259.7098694,-123.0464478,-66.57582855,-113.1375809,-1.0,88.9,-1.0999999999999943,0.09999999999999432,572.0
573,1618666424.482,1618666424.4876401,-269.7776794,-117.7956314,-71.22826385,-128.5497131,-1.0,88.9,-1.0999999999999943,0.09999999999999432,573.0
574,1618666424.512,1618666424.51761,-292.7444153,-120.3163223,-74.6166153,-121.3915405,-1.0,88.8,-1.2000000000000028,0.20000000000000284,574.0
575,1618666424.526,1618666424.51961,-255.0462189,-139.3411865,-64.33188629,-108.4402695,-1.0,88.8,-1.2000000000000028,0.20000000000000284,575.0
576,1618666424.556,1618666424.55459,-301.7089539,-112.2381363,-56.04053116,-67.23030853,-1.0,88.9,-1.0999999999999943,0.09999999999999432,576.0
577,1618666424.587,1618666424.59156,-257.4248047,-136.2894287,-77.24202728,-134.3858185,-1.0,88.9,-1.0999999999999943,0.09999999999999432,577.0
578,1618666424.587,1618666424.59256,-276.0794067,-111.1086884,-56.96802521,-122.6051407,-1.0,88.9,-1.0999999999999943,0.09999999999999432,578.0
579,1618666424.617,1618666424.61855,-285.6236267,-124.7032242,-65.24442291,-79.91044617,-1.0,88.8,-1.2000000000000028,0.20000000000000284,579.0
580,1618666424.617,1618666424.62055,-275.9522705,-135.3582001,-70.36808777,-129.5688324,-1.0,88.8,-1.2000000000000028,0.20000000000000284,580.0
581,1618666424.648,1618666424.64853,-258.6888733,-127.9232788,-77.87032318,-142.1872559,-1.0,88.8,-1.2000000000000028,0.20000000000000284,581.0
582,1618666424.693,1618666424.68053,-290.0703735,-116.2473068,-54.9447403,-103.9617386,-1.0,88.8,-1.2000000000000028,0.20000000000000284,582.0
583,1618666424.693,1618666424.68151,-271.8944702,-125.5447006,-49.03195953,-120.8099899,-1.0,88.8,-1.2000000000000028,0.20000000000000284,583.0
584,1618666424.721,1618666424.71451,-248.4004211,-132.9384766,-64.63481903,-152.9282532,-1.0,88.8,-1.2000000000000028,0.20000000000000284,584.0
585,1618666424.827,1618666424.82943,-290.492981,-119.8637924,-50.2511673,-68.91139984,-1.0,88.7,-1.2999999999999972,0.29999999999999716,585.0
586,1618666424.827,1618666424.83043,-262.017395,-124.5910263,-70.61865997,-209.6176453,-1.0,88.7,-1.2999999999999972,0.29999999999999716,586.0
587,1618666424.826,1618666424.83142,-248.5537567,-137.3852234,-53.72179413,-153.1638641,-1.0,88.7,-1.2999999999999972,0.29999999999999716,587.0
588,1618666424.826,1618666424.83342,-275.0995483,-117.3468399,-51.41053391,-155.3629303,-1.0,88.7,-1.2999999999999972,0.29999999999999716,588.0
589,1618666424.841,1618666424.83542,-280.9525146,-100.663147,-38.13763046,-44.12334061,-1.0,88.7,-1.2999999999999972,0.29999999999999716,589.0
590,1618666424.856,1618666424.85441,-285.8442993,-106.8975601,-61.96453094,-103.0342407,-1.0,88.7,-1.2999999999999972,0.29999999999999716,590.0
591,1618666424.856,1618666424.85641,-275.5595703,-149.5511169,-58.52382278,-149.6782684,-1.0,88.7,-1.2999999999999972,0.29999999999999716,591.0
592,1618666424.871,1618666424.8724,-297.6549072,-122.5079041,-46.82915878,-123.2259674,-1.0,88.7,-1.2999999999999972,0.29999999999999716,592.0
593,1618666424.901,1618666424.90438,-269.2727966,-127.4296112,-62.12534714,-152.4009247,-1.0,88.7,-1.2999999999999972,0.29999999999999716,593.0
594,1618666424.931,1618666424.93736,-273.2071838,-111.0563278,-32.08647156,-123.0875854,-1.0,88.7,-1.2999999999999972,0.29999999999999716,594.0
595,1618666424.931,1618666424.93838,-271.4718628,-110.6486816,-47.28542328,-86.02891541,-1.0,88.7,-1.2999999999999972,0.29999999999999716,595.0
596,1618666424.976,1618666424.97234,-274.8676758,-110.233551,-55.8535347,-142.9053192,-1.0,88.7,-1.2999999999999972,0.29999999999999716,596.0
597,1618666424.976,1618666424.97334,-253.5614777,-135.0814514,-64.67595673,-115.0542831,-1.0,88.7,-1.2999999999999972,0.29999999999999716,597.0
598,1618666425.007,1618666425.0083199,-271.5317078,-124.3217545,-59.11846924,-118.3079987,-1.0,88.7,-1.2999999999999972,0.29999999999999716,598.0
599,1618666425.036,1618666425.03531,-273.648468,-130.2719421,-55.16165543,-185.7271729,-1.0,88.7,-1.2999999999999972,0.29999999999999716,599.0
600,1618666425.037,1618666425.03731,-292.942627,-169.1594086,-74.65775299,-58.67903137,-1.0,88.7,-1.2999999999999972,0.29999999999999716,600.0
601,1618666425.067,1618666425.06929,-284.5727234,-139.789978,-50.76353073,-138.795166,-1.0,88.7,-1.2999999999999972,0.29999999999999716,601.0
602,1618666425.097,1618666425.0992699,-289.3598022,-105.3455048,-30.70644951,-117.9975815,-1.0,88.7,-1.2999999999999972,0.29999999999999716,602.0
603,1618666425.097,1618666425.10127,-290.6051941,-139.8909607,-38.2348671,-136.7494354,-1.0,88.7,-1.2999999999999972,0.29999999999999716,603.0
604,1618666425.141,1618666425.13525,-297.4828491,-127.7101059,-35.84506989,-135.7770691,-1.0,88.7,-1.2999999999999972,0.29999999999999716,604.0
605,1618666425.141,1618666425.13625,-296.6077271,-136.8466797,-53.90878677,-101.9309769,-1.0,88.7,-1.2999999999999972,0.29999999999999716,605.0
606,1618666425.171,1618666425.16523,-261.871521,-121.0680389,-43.37722778,-119.4075241,-1.0,88.7,-1.2999999999999972,0.29999999999999716,606.0
607,1618666425.203,1618666425.19821,-308.2949219,-124.3890762,-43.62406158,-109.3284988,-1.0,88.7,-1.2999999999999972,0.29999999999999716,607.0
608,1618666425.203,1618666425.19922,-287.2018738,-129.6024933,-43.64276123,-128.1065369,-1.0,88.7,-1.2999999999999972,0.29999999999999716,608.0
609,1618666425.231,1618666425.23721,-259.2835388,-84.92190552,-27.01142693,-96.1079483,-1.0,88.6,-1.4000000000000057,0.4000000000000057,609.0
610,1618666425.231,1618666425.2382,-292.3517151,-121.5542297,-39.59992981,-102.7649689,-1.0,88.6,-1.4000000000000057,0.4000000000000057,610.0
611,1618666425.276,1618666425.27018,-260.0090637,-127.1117172,-46.52248383,-159.4842987,-1.1,88.7,-1.2999999999999972,0.19999999999999707,611.0
612,1618666425.291,1618666425.29716,-251.6316833,-126.1206436,-46.23825455,-154.2746124,-1.1,88.7,-1.2999999999999972,0.19999999999999707,612.0
613,1618666425.291,1618666425.29816,-295.4932251,-123.2222214,-37.59534454,-122.5490417,-1.1,88.7,-1.2999999999999972,0.19999999999999707,613.0
614,1618666425.336,1618666425.33114,-271.8682861,-122.1189499,-33.24584198,-141.6636658,-1.1,88.6,-1.4000000000000057,0.3000000000000056,614.0
615,1618666425.367,1618666425.3691401,-272.2011414,-134.2100525,-46.93387604,-143.0362091,-1.1,88.6,-1.4000000000000057,0.3000000000000056,615.0
616,1618666425.367,1618666425.3701198,-287.6544189,-110.708519,-52.11363602,-137.7666931,-1.1,88.6,-1.4000000000000057,0.3000000000000056,616.0
617,1618666425.396,1618666425.39311,-260.682251,-131.7529297,-37.68884277,-196.6177673,-1.1,88.6,-1.4000000000000057,0.3000000000000056,617.0
618,1618666425.396,1618666425.39411,-291.4990234,-104.5937805,-41.08093262,-64.41603851,-1.1,88.6,-1.4000000000000057,0.3000000000000056,618.0
619,1618666425.427,1618666425.42979,-261.5910339,-114.904686,-38.10771179,-102.8322906,-1.1,88.6,-1.4000000000000057,0.3000000000000056,619.0
620,1618666425.457,1618666425.46179,-274.1907654,-134.0903778,-54.29399872,-125.3876266,-1.1,88.6,-1.4000000000000057,0.3000000000000056,620.0
621,1618666425.457,1618666425.46279,-258.5953674,-110.970314,-49.82855606,-143.8851776,-1.1,88.6,-1.4000000000000057,0.3000000000000056,621.0
622,1618666425.501,1618666425.49775,-274.0187378,-113.0721359,-50.44937897,-137.5759583,-1.0,88.5,-1.5,0.5,622.0
623,1618666425.501,1618666425.49975,-251.1529846,-125.7616196,-62.64893341,-142.6397858,-1.0,88.5,-1.5,0.5,623.0
624,1618666425.531,1618666425.5317302,-250.6256561,-126.3375626,-59.93376541,-132.5831909,-1.1,88.5,-1.5,0.3999999999999999,624.0
625,1618666425.561,1618666425.56271,-268.674408,-142.8454742,-71.97624207,-158.9681854,-1.1,88.5,-1.5,0.3999999999999999,625.0
626,1618666425.561,1618666425.56471,-242.188446,-111.4639816,-80.0506897,-137.957428,-1.1,88.5,-1.5,0.3999999999999999,626.0
627,1618666425.592,1618666425.5947099,-272.0272217,-106.1140518,-71.79859924,-184.9960175,-1.1,88.4,-1.5999999999999943,0.4999999999999942,627.0
628,1618666425.592,1618666425.5967,-256.1289063,-142.7613373,-55.9750824,-170.3019562,-1.1,88.4,-1.5999999999999943,0.4999999999999942,628.0
629,1618666425.622,1618666425.62768,-239.2470093,-141.6767578,-73.8854599,-172.1008453,-1.1,88.4,-1.5999999999999943,0.4999999999999942,629.0
630,1618666425.666,1618666425.66066,-234.175705,-111.5668259,-74.14725494,-159.9611359,-1.0,88.3,-1.7000000000000028,0.7000000000000028,630.0
631,1618666425.666,1618666425.66165,-254.4347382,-117.4908295,-57.17932892,-102.6920395,-1.0,88.3,-1.7000000000000028,0.7000000000000028,631.0
632,1618666425.696,1618666425.69264,-257.0339661,-89.14238739,-43.89894485,-114.7195587,-1.0,88.3,-1.7000000000000028,0.7000000000000028,632.0
633,1618666425.696,1618666425.69364,-242.115509,-119.2111816,-57.52714157,-145.8617096,-1.0,88.3,-1.7000000000000028,0.7000000000000028,633.0
634,1618666425.726,1618666425.7246199,-240.6906128,-170.3430939,-81.92998505,-169.3408051,-1.0,88.2,-1.7999999999999972,0.7999999999999972,634.0
635,1618666425.76,1618666425.7606,-237.6949463,-105.0668793,-68.52993011,-122.098381,-1.1,88.1,-1.9000000000000057,0.8000000000000056,635.0
636,1618666425.76,1618666425.7616,-279.4172668,-142.5032806,-64.68531036,-124.2338638,-1.1,88.1,-1.9000000000000057,0.8000000000000056,636.0
637,1618666425.786,1618666425.79158,-251.4465637,-122.176918,-72.60267639,-115.75177,-1.1,88.1,-1.9000000000000057,0.8000000000000056,637.0
638,1618666425.831,1618666425.8255599,-248.282608,-141.530899,-84.58531952,-147.6045074,-1.1,88.1,-1.9000000000000057,0.8000000000000056,638.0
639,1618666425.831,1618666425.82656,-262.9130859,-113.2722168,-66.43184662,-152.8927155,-1.1,88.1,-1.9000000000000057,0.8000000000000056,639.0
640,1618666425.861,1618666425.85854,-253.7653046,-101.5438919,-64.65164948,-84.73303986,-1.1,88.0,-2.0,0.8999999999999999,640.0
641,1618666425.861,1618666425.86055,-238.9216461,-137.4805908,-66.54403687,-148.6105347,-1.1,88.0,-2.0,0.8999999999999999,641.0
642,1618666425.892,1618666425.89252,-234.796524,-152.3167725,-111.2732468,-251.4353485,-1.1,88.0,-2.0,0.8999999999999999,642.0
643,1618666425.922,1618666425.9255,-249.0268555,-150.7647095,-89.68280029,-142.5032806,-1.1,88.0,-2.0,0.8999999999999999,643.0
644,1618666425.922,1618666425.9265,-244.7633667,-126.0065765,-86.88909912,-242.2202301,-1.1,88.0,-2.0,0.8999999999999999,644.0
645,1618666425.952,1618666425.9585,-219.5115509,-160.032196,-95.04207611,-195.826767,-1.1,87.9,-2.0999999999999943,0.9999999999999942,645.0
646,1618666425.966,1618666425.95948,-265.2393188,-128.4300385,-55.75816727,-101.4690933,-1.1,87.9,-2.0999999999999943,0.9999999999999942,646.0
647,1618666425.996,1618666425.99047,-235.8960571,-107.9615631,-59.68132401,-86.87600708,-1.1,87.9,-2.0999999999999943,0.9999999999999942,647.0
648,1618666426.026,1618666426.0214698,-260.2652588,-95.18980408,-47.62388611,-72.71300507,-1.1,87.8,-2.200000000000003,1.1000000000000028,648.0
649,1618666426.026,1618666426.02245,-256.413147,-121.8440704,-61.66347122,-114.8130569,-1.1,87.8,-2.200000000000003,1.1000000000000028,649.0
650,1618666426.056,1618666426.05343,-228.3003235,-133.7593994,-63.40252304,-164.621048,-1.1,87.8,-2.200000000000003,1.1000000000000028,650.0
651,1618666426.056,1618666426.05443,-247.7739868,-130.1578674,-70.19044495,-130.651535,-1.1,87.8,-2.200000000000003,1.1000000000000028,651.0
652,1618666426.086,1618666426.08741,-268.1676636,-118.0106735,-68.51870728,-86.65908813,-1.1,87.7,-2.299999999999997,1.199999999999997,652.0
653,1618666426.116,1618666426.12039,-233.023819,-129.9446869,-68.64212036,-134.8065643,-1.1,87.6,-2.4000000000000057,1.3000000000000056,653.0
654,1618666426.116,1618666426.12139,-249.4419708,-137.0018921,-82.58821106,-125.8121033,-1.1,87.6,-2.4000000000000057,1.3000000000000056,654.0
655,1618666426.146,1618666426.15239,-249.3410034,-135.9173126,-53.76106262,-162.0143433,-1.1,87.5,-2.5,1.4,655.0
656,1618666426.191,1618666426.18535,-253.3838348,-130.2289276,-69.7266922,-102.7107391,-1.1,87.5,-2.5,1.4,656.0
657,1618666426.191,1618666426.18635,-222.0359955,-139.855423,-73.85180664,-147.4474182,-1.1,87.5,-2.5,1.4,657.0
658,1618666426.221,1618666426.2183301,-240.8140259,-140.0872955,-66.81331635,-77.6608963,-1.1,87.5,-2.5,1.4,658.0
659,1618666426.221,1618666426.22033,-254.285141,-130.4383545,-61.61111069,-130.0868073,-1.1,87.5,-2.5,1.4,659.0
660,1618666426.252,1618666426.25531,-235.4023895,-114.973877,-62.96121597,-158.8054962,-1.1,87.4,-2.5999999999999943,1.4999999999999942,660.0
661,1618666426.252,1618666426.25731,-227.5785217,-131.960495,-48.88049316,-150.6038971,-1.1,87.4,-2.5999999999999943,1.4999999999999942,661.0
662,1618666426.282,1618666426.28531,-231.9205475,-134.8364868,-65.51556396,-125.382019,-1.1,87.3,-2.700000000000003,1.6000000000000028,662.0
663,1618666426.326,1618666426.32128,-213.3108063,-201.0888062,-122.8332748,-167.7700348,-1.1,87.2,-2.799999999999997,1.699999999999997,663.0
664,1618666426.326,1618666426.32428,-199.3796692,-100.8108749,-49.73693085,-220.3193817,-1.1,87.2,-2.799999999999997,1.699999999999997,664.0
665,1618666426.356,1618666426.35725,-229.4335175,-136.0856171,-67.16486359,-131.227478,-1.1,87.2,-2.799999999999997,1.699999999999997,665.0
666,1618666426.356,1618666426.35826,-240.0024719,-176.0426941,-81.15583038,-188.332016,-1.1,87.2,-2.799999999999997,1.699999999999997,666.0
667,1618666426.386,1618666426.38025,-225.8095551,-129.4136353,-66.5515213,-153.2330475,-1.1,87.2,-2.799999999999997,1.699999999999997,667.0
668,1618666426.416,1618666426.4128401,-234.3514862,-119.925499,-66.23362732,-133.8828125,-1.1,87.1,-2.9000000000000057,1.8000000000000056,668.0
669,1618666426.416,1618666426.41482,-231.5652618,-149.407135,-82.68544769,-137.8321381,-1.1,87.1,-2.9000000000000057,1.8000000000000056,669.0
670,1618666426.446,1618666426.45081,-199.7349701,-167.4446716,-68.77676392,-163.1250916,-1.1,87.1,-2.9000000000000057,1.8000000000000056,670.0
671,1618666426.491,1618666426.48478,-176.7794647,-150.4094238,-76.31639862,-148.9546051,-1.1,87.0,-3.0,1.9,671.0
672,1618666426.491,1618666426.48579,-219.6275024,-129.2341156,-59.61400604,-171.6857147,-1.1,87.0,-3.0,1.9,672.0
673,1618666426.506,1618666426.51277,-198.0146179,-123.8411789,-60.18246841,-134.0997162,-1.1,86.9,-3.0999999999999943,1.9999999999999942,673.0
674,1618666426.521,1618666426.51477,-228.767807,-130.2027435,-62.88267899,-75.9442749,-1.1,86.9,-3.0999999999999943,1.9999999999999942,674.0
675,1618666426.551,1618666426.54375,-175.3321228,-140.6183624,-86.00273895,-181.1663666,-1.1,86.9,-3.0999999999999943,1.9999999999999942,675.0
676,1618666426.582,1618666426.5817301,-174.0755157,-157.4217377,-82.36755371,-277.8502502,-1.1,86.8,-3.200000000000003,2.1000000000000028,676.0
677,1618666426.582,1618666426.58373,-242.2164917,-115.9499893,-42.96397018,-95.9041214,-1.1,86.8,-3.200000000000003,2.1000000000000028,677.0
678,1618666426.611,1618666426.61271,-217.2040405,-160.5183716,-98.86425781,-110.2672119,-1.1,86.7,-3.299999999999997,2.199999999999997,678.0
679,1618666426.611,1618666426.6147099,-222.6717682,-184.3265839,-105.876564,-254.8367767,-1.1,86.7,-3.299999999999997,2.199999999999997,679.0
680,1618666426.656,1618666426.65269,-195.0600891,-176.4540863,-45.72027588,-351.1541748,-1.1,86.5,-3.5,2.4,680.0
681,1618666426.656,1618666426.65369,-249.9954834,-328.0864563,72.68495941,-525.7944336,-1.1,86.5,-3.5,2.4,681.0
682,1618666426.687,1618666426.6826801,-233.2706451,-170.3730164,-69.08717346,-605.9217529,-1.1,86.5,-3.5,2.4,682.0
683,1618666426.716,1618666426.70866,-83.25952148,32.50160217,73.17114258,-1093.58606,-1.2,86.4,-3.5999999999999943,2.399999999999994,683.0
684,1618666426.746,1618666426.74463,-144.6163177,-98.44351959,54.33326721,-1670.14209,-1.3,86.2,-3.799999999999997,2.4999999999999973,684.0
685,1618666426.746,1618666426.74563,-159.5385284,-7.279715061,20.03838348,-1614.20813,-1.3,86.2,-3.799999999999997,2.4999999999999973,685.0
686,1618666426.777,1618666426.77962,-213.4678802,344.6953735,-131.1470642,-1486.165161,-1.6,85.8,-4.200000000000003,2.6000000000000028,686.0
687,1618666426.777,1618666426.78162,-251.7420197,466.0139771,-37.87396622,-1572.598022,-1.6,85.8,-4.200000000000003,2.6000000000000028,687.0
688,1618666426.807,1618666426.8136,-226.20224,108.6160431,-575.3817139,-1451.066284,-1.6,85.8,-4.200000000000003,2.6000000000000028,688.0
689,1618666426.821,1618666426.81659,-16.38637161,426.9395142,-580.9242554,-1816.297363,-1.6,85.8,-4.200000000000003,2.6000000000000028,689.0
690,1618666426.837,1618666426.84058,-187.6064758,377.6289063,-690.5668945,-1698.486816,-2.2,85.4,-4.599999999999994,2.399999999999994,690.0
691,1618666426.881,1618666426.87756,-230.476944,-167.3343506,-583.5085449,-2092.763916,-2.8,85.1,-4.900000000000006,2.100000000000006,691.0
692,1618666426.881,1618666426.87856,-310.8810425,-72.86820984,-604.6240234,-1954.069702,-2.8,85.1,-4.900000000000006,2.100000000000006,692.0
693,1618666426.911,1618666426.91254,-310.3013611,-122.2573318,-551.2855835,-2288.665527,-4.0,85.1,-4.900000000000006,0.9000000000000057,693.0
694,1618666426.911,1618666426.91454,-262.8233337,-152.0531158,-501.8553162,-2148.746338,-4.0,85.1,-4.900000000000006,0.9000000000000057,694.0
695,1618666426.941,1618666426.9435198,-257.5500793,447.0582886,-703.8360596,-2048.427246,-4.0,85.1,-4.900000000000006,0.9000000000000057,695.0
696,1618666426.971,1618666426.9755,-273.343689,468.4580078,-145.3960876,-2273.088867,-5.6,85.1,-4.900000000000006,-0.699999999999994,696.0
697,1618666426.971,1618666426.9765,-155.7126007,354.6116943,-183.6328278,-2264.700195,-5.6,85.1,-4.900000000000006,-0.699999999999994,697.0
698,1618666427.001,1618666427.0044901,-243.9742432,317.2968445,-133.9968719,-2076.26709,-8.0,85.3,-4.700000000000003,-3.299999999999997,698.0
699,1618666427.046,1618666427.03947,-298.8796997,205.3130341,-298.5749207,-2473.485596,-10.8,85.5,-4.5,-6.300000000000001,699.0
700,1618666427.046,1618666427.04047,-234.7142487,52.92519379,-55.61605072,-2252.448242,-10.8,85.5,-4.5,-6.300000000000001,700.0
701,1618666427.076,1618666427.07645,-314.4975281,-168.4768829,439.8047485,-1999.619751,-10.8,85.5,-4.5,-6.300000000000001,701.0
702,1618666427.077,1618666427.07844,-221.9424896,72.99723816,483.3596191,-2015.529297,-10.8,85.5,-4.5,-6.300000000000001,702.0
703,1618666427.106,1618666427.1014302,-224.395874,270.8809509,324.6008911,-2140.202637,-13.8,85.8,-4.200000000000003,-9.599999999999998,703.0
704,1618666427.137,1618666427.13941,-74.6240921,-646.3930664,369.5133362,-2239.691406,-16.2,86.1,-3.9000000000000057,-12.299999999999994,704.0
705,1618666427.137,1618666427.14041,76.03964233,-873.1394653,179.115036,-2220.28125,-16.2,86.1,-3.9000000000000057,-12.299999999999994,705.0
706,1618666427.167,1618666427.1714098,-223.7488708,-948.8444214,81.52420807,-2211.745117,-16.2,86.1,-3.9000000000000057,-12.299999999999994,706.0
707,1618666427.199,1618666427.20437,-272.2852783,-1050.21814,-184.1713715,-1930.403564,-20.2,87.2,-2.799999999999997,-17.400000000000002,707.0
708,1618666427.211,1618666427.2063699,-221.9649353,-1098.141235,-279.5855713,-2094.390625,-20.2,87.2,-2.799999999999997,-17.400000000000002,708.0
709,1618666427.241,1618666427.23909,-299.541687,-1086.145508,611.187561,-2795.148926,-23.1,88.0,-2.0,-21.1,709.0
710,1618666427.241,1618666427.24108,-433.4226074,-1300.681152,483.72052,-2870.476074,-23.1,88.0,-2.0,-21.1,710.0
711,1618666427.271,1618666427.26906,-425.1836243,-1179.762695,242.5867462,-3382.763916,-23.1,88.0,-2.0,-21.1,711.0
712,1618666427.301,1618666427.30104,-272.3114624,-1395.87085,31.94248581,-3503.925293,-26.4,88.7,-1.2999999999999972,-25.1,712.0
713,1618666427.301,1618666427.30204,-365.0759583,-1443.760376,115.9425049,-3529.588623,-26.4,88.7,-1.2999999999999972,-25.1,713.0
714,1618666427.331,1618666427.33302,-232.4964905,-1764.761597,-152.857193,-3566.658447,-28.5,89.6,-0.4000000000000057,-28.099999999999994,714.0
715,1618666427.331,1618666427.33602,-344.0838928,-1694.814209,-292.4040833,-3522.935303,-28.5,89.6,-0.4000000000000057,-28.099999999999994,715.0
716,1618666427.361,1618666427.3670099,-222.8026733,-1798.127075,-331.7384644,-3400.015869,-30.8,90.1,0.09999999999999432,-30.899999999999995,716.0
717,1618666427.391,1618666427.40099,-186.6266174,-1504.492554,215.5865326,-3574.429932,-31.8,89.8,-0.20000000000000284,-31.599999999999998,717.0
718,1618666427.391,1618666427.40298,-184.0834808,-1657.233765,34.11349869,-3532.041992,-31.8,89.8,-0.20000000000000284,-31.599999999999998,718.0
719,1618666427.425,1618666427.42999,331.2130127,-1308.950073,353.1512756,-4060.155029,-31.8,89.8,-0.20000000000000284,-31.599999999999998,719.0
720,1618666427.466,1618666427.46595,254.5974274,-1696.749634,467.3603516,-4091.581543,-32.0,89.6,-0.4000000000000057,-31.599999999999994,720.0
721,1618666427.467,1618666427.46895,299.2481079,-1452.582764,537.3002319,-4136.680664,-32.0,89.6,-0.4000000000000057,-31.599999999999994,721.0
722,1618666427.497,1618666427.49893,265.1177673,-1234.047363,290.1601257,-4124.365234,-32.0,89.7,-0.29999999999999716,-31.700000000000003,722.0
723,1618666427.497,1618666427.50093,329.6011353,-1021.572388,71.82290649,-3970.71167,-32.0,89.7,-0.29999999999999716,-31.700000000000003,723.0
724,1618666427.541,1618666427.53492,326.2389526,-1156.096558,129.9671326,-4634.220215,-32.0,89.4,-0.5999999999999943,-31.400000000000006,724.0
725,1618666427.541,1618666427.53793,277.747406,-1225.976563,-87.19390106,-4474.23877,-32.0,89.4,-0.5999999999999943,-31.400000000000006,725.0
726,1618666427.571,1618666427.57089,292.3591919,-1105.914551,-139.6516113,-4624.98291,-32.0,89.4,-0.5999999999999943,-31.400000000000006,726.0
727,1618666427.601,1618666427.59887,-207.9160004,-263.0234375,-306.1743774,-120.1050186,-31.6,89.2,-0.7999999999999972,-30.800000000000004,727.0
728,1618666427.602,1618666427.60087,-196.2213287,-194.687973,-111.10495,-187.015564,-31.6,89.2,-0.7999999999999972,-30.800000000000004,728.0
729,1618666427.631,1618666427.62786,-204.9465179,-148.8405457,-193.5697479,-156.5839996,-31.3,89.0,-1.0,-30.3,729.0
730,1618666427.662,1618666427.66585,-188.4199066,-191.2360382,-327.4656372,-97.60203552,-31.1,88.7,-1.2999999999999972,-29.800000000000004,730.0
731,1618666427.662,1618666427.6688302,-211.0388184,-60.43678284,-204.4453735,-116.5857697,-31.1,88.7,-1.2999999999999972,-29.800000000000004,731.0
732,1618666427.706,1618666427.6998198,-228.9267578,-67.56503296,329.2589111,-117.4197693,-31.1,88.7,-1.2999999999999972,-29.800000000000004,732.0
733,1618666427.706,1618666427.70181,-263.4086304,123.8486557,209.7242432,-138.6997986,-31.1,88.7,-1.2999999999999972,-29.800000000000004,733.0
734,1618666427.722,1618666427.7268,-237.068512,324.4269714,314.6134644,-165.2456055,-30.6,88.3,-1.7000000000000028,-28.9,734.0
735,1618666427.766,1618666427.76078,-266.6585999,215.2331085,715.9627075,-176.0875854,-29.9,88.0,-2.0,-27.9,735.0
736,1618666427.766,1618666427.76178,-294.6106262,202.8016815,728.5474854,-68.13910675,-29.9,88.0,-2.0,-27.9,736.0
737,1618666427.796,1618666427.79576,-292.3816528,207.0838776,799.2689819,-63.39691544,-29.2,87.6,-2.4000000000000057,-26.799999999999994,737.0
738,1618666427.796,1618666427.7967598,-318.5160522,264.1884155,706.0369873,-161.8647461,-29.2,87.6,-2.4000000000000057,-26.799999999999994,738.0
739,1618666427.826,1618666427.8287401,-266.808197,447.9633484,305.4282837,-163.6673737,-29.2,87.6,-2.4000000000000057,-26.799999999999994,739.0
740,1618666427.856,1618666427.8587198,-315.8495178,622.1286011,211.4184113,-150.7310638,-28.3,87.3,-2.700000000000003,-25.599999999999998,740.0
741,1618666427.856,1618666427.85972,-271.5915222,695.1314697,200.7297821,-159.7217712,-28.3,87.3,-2.700000000000003,-25.599999999999998,741.0
742,1618666427.902,1618666427.8947198,-235.000351,963.510437,284.7690735,-626.0330811,-27.4,87.1,-2.9000000000000057,-24.499999999999993,742.0
743,1618666427.902,1618666427.8967,-251.672821,783.2509766,316.9434204,-636.2879028,-27.4,87.1,-2.9000000000000057,-24.499999999999993,743.0
744,1618666427.931,1618666427.92869,-210.8293762,1002.229614,270.1984253,-590.1000977,-26.2,86.8,-3.200000000000003,-22.999999999999996,744.0
745,1618666427.961,1618666427.95966,-243.0523529,721.3070068,239.8154755,-638.9544067,-26.2,86.8,-3.200000000000003,-22.999999999999996,745.0
746,1618666427.961,1618666427.96066,-244.2790527,751.5478516,263.1038208,-646.6848145,-26.2,86.8,-3.200000000000003,-22.999999999999996,746.0
747,1618666427.992,1618666427.99864,-226.6753387,870.3756714,304.2913513,-613.4370728,-24.5,86.4,-3.5999999999999943,-20.900000000000006,747.0
748,1618666428.006,1618666427.99964,-313.5756531,1005.546875,197.9098969,-618.2952271,-24.5,86.4,-3.5999999999999943,-20.900000000000006,748.0
749,1618666428.022,1618666428.02563,-277.8147278,903.1315918,315.7728577,-632.9892578,-23.0,86.3,-3.700000000000003,-19.299999999999997,749.0
750,1618666428.052,1618666428.05862,-233.9980621,701.203186,259.3265381,-724.0259399,-20.6,85.8,-4.200000000000003,-16.4,750.0
751,1618666428.066,1618666428.05962,-193.031189,837.9189453,324.2362366,-639.6762085,-20.6,85.8,-4.200000000000003,-16.4,751.0
752,1618666428.096,1618666428.09359,-164.9445496,873.8856201,316.7153015,-817.5720215,-20.6,85.8,-4.200000000000003,-16.4,752.0
753,1618666428.096,1618666428.09459,-175.2741547,910.1252441,312.8108521,-1011.360596,-20.6,85.8,-4.200000000000003,-16.4,753.0
754,1618666428.126,1618666428.12259,-260.7159119,876.114563,304.6877747,-1117.839233,-18.4,85.7,-4.299999999999997,-14.100000000000001,754.0
755,1618666428.156,1618666428.15355,-229.4428558,1269.322021,283.2992859,-1120.535767,-15.2,85.4,-4.599999999999994,-10.600000000000005,755.0
756,1618666428.156,1618666428.15555,-226.5182648,1288.694702,323.907135,-1092.920288,-15.2,85.4,-4.599999999999994,-10.600000000000005,756.0
757,1618666428.186,1618666428.18755,-302.7636108,1278.765259,342.9394836,-1129.040283,-15.2,85.4,-4.599999999999994,-10.600000000000005,757.0
758,1618666428.216,1618666428.22051,-262.2529907,1764.553955,346.3053894,-1063.233032,-13.4,85.4,-4.599999999999994,-8.800000000000006,758.0
759,1618666428.216,1618666428.22153,-285.582489,1761.629395,324.9206238,-1054.863037,-13.4,85.4,-4.599999999999994,-8.800000000000006,759.0
760,1618666428.262,1618666428.2574902,-249.9749146,1725.053223,290.4985962,-1177.370972,-10.7,85.5,-4.5,-6.199999999999999,760.0
761,1618666428.262,1618666428.25949,-278.244812,1511.418823,281.8108215,-1124.724365,-10.7,85.5,-4.5,-6.199999999999999,761.0
762,1618666428.291,1618666428.28748,-269.0558777,1772.359131,358.7069092,-1143.906372,-7.8,85.8,-4.200000000000003,-3.599999999999997,762.0
763,1618666428.322,1618666428.31846,-254.2084808,1798.901245,390.952301,-1049.604736,-7.8,85.8,-4.200000000000003,-3.599999999999997,763.0
764,1618666428.322,1618666428.3204598,-298.5823975,1722.087402,362.5328064,-1044.267944,-7.8,85.8,-4.200000000000003,-3.599999999999997,764.0
765,1618666428.352,1618666428.35344,-254.8928833,2174.920166,392.3360596,-1113.130737,-5.7,86.3,-3.700000000000003,-1.9999999999999973,765.0
766,1618666428.352,1618666428.35444,-279.9427185,2177.945801,300.4542236,-1087.542358,-5.7,86.3,-3.700000000000003,-1.9999999999999973,766.0
767,1618666428.382,1618666428.3884199,-298.5300293,1705.938477,377.9786072,-1025.14209,-4.3,86.8,-3.200000000000003,-1.099999999999997,767.0
768,1618666428.412,1618666428.4164,-276.6852722,1679.583496,389.6396179,-1021.731323,-3.5,87.5,-2.5,-1.0,768.0
769,1618666428.412,1618666428.4174,-295.3810425,1736.347656,392.5567322,-1034.024414,-3.5,87.5,-2.5,-1.0,769.0
770,1618666428.456,1618666428.45038,-280.6458435,1707.052979,383.9474792,-1087.044922,-3.5,87.5,-2.5,-1.0,770.0
771,1618666428.486,1618666428.48636,-262.4100952,1774.689087,469.6622314,-1181.391357,-3.2,88.0,-2.0,-1.2000000000000002,771.0
772,1618666428.486,1618666428.48836,-247.4392548,1851.899292,395.013855,-1036.152344,-3.2,88.0,-2.0,-1.2000000000000002,772.0
773,1618666428.502,1618666428.51635,-307.4870911,1766.435181,472.5644226,-1079.606323,-3.0,88.1,-1.9000000000000057,-1.0999999999999943,773.0
774,1618666428.532,1618666428.51734,-319.540802,1729.817749,397.657959,-1101.312622,-3.0,88.1,-1.9000000000000057,-1.0999999999999943,774.0
775,1618666428.546,1618666428.55332,-269.9385071,1694.819824,392.624054,-1102.610352,-2.7,88.6,-1.4000000000000057,-1.2999999999999945,775.0
776,1618666428.561,1618666428.5543199,-299.4425659,1695.672485,393.802124,-1081.292969,-2.7,88.6,-1.4000000000000057,-1.2999999999999945,776.0
777,1618666428.591,1618666428.58431,-271.7822571,1760.051147,418.6462708,-1090.25,-2.7,88.6,-1.4000000000000057,-1.2999999999999945,777.0
778,1618666428.621,1618666428.61488,-298.9096375,-267.5860901,-91.85007477,-131.4668274,-2.3,89.1,-0.9000000000000057,-1.3999999999999941,778.0
779,1618666428.621,1618666428.61588,-276.4291077,-281.8276367,-103.4325409,-150.2897491,-2.3,89.1,-0.9000000000000057,-1.3999999999999941,779.0
780,1618666428.651,1618666428.64586,-301.5238342,-286.8652954,-95.30574036,-104.1730423,-2.0,89.4,-0.5999999999999943,-1.4000000000000057,780.0
781,1618666428.681,1618666428.68484,-275.430542,-268.2518005,-101.7645493,-118.85215,-1.9,89.3,-0.7000000000000028,-1.199999999999997,781.0
782,1618666428.681,1618666428.68684,-282.7420349,-243.1907349,-83.66717529,-117.9470978,-1.9,89.3,-0.7000000000000028,-1.199999999999997,782.0
783,1618666428.711,1618666428.71082,-311.9992981,-195.8959656,-41.58955765,-554.2494507,-1.9,89.3,-0.7000000000000028,-1.199999999999997,783.0
784,1618666428.741,1618666428.74282,-303.7415771,-259.0815735,-92.4858551,-614.9405518,-1.7,89.1,-0.9000000000000057,-0.7999999999999943,784.0
785,1618666428.741,1618666428.7438,-298.389801,-261.2806396,-91.89868927,-619.4359131,-1.7,89.1,-0.9000000000000057,-0.7999999999999943,785.0
786,1618666428.786,1618666428.7797801,-293.3783264,-255.4463806,-98.55945587,-631.5232544,-1.6,89.0,-1.0,-0.6000000000000001,786.0
787,1618666428.786,1618666428.78178,-301.8230286,-257.1480408,-92.24650574,-622.8765869,-1.6,89.0,-1.0,-0.6000000000000001,787.0
788,1618666428.817,1618666428.81876,-316.4273376,-210.2048187,-76.64363861,-569.4558716,-1.5,88.8,-1.2000000000000028,-0.29999999999999716,788.0
789,1618666428.817,1618666428.8197598,-333.888916,-235.6099548,-77.52999878,-615.651123,-1.5,88.8,-1.2000000000000028,-0.29999999999999716,789.0
790,1618666428.846,1618666428.84475,-325.118866,-254.3655548,-100.9230728,-609.0800781,-1.5,88.8,-1.2000000000000028,-0.29999999999999716,790.0
791,1618666428.877,1618666428.8837302,-316.0421143,-241.0739441,-93.85466003,-635.78302,-1.4,88.8,-1.2000000000000028,-0.19999999999999707,791.0
792,1618666428.891,1618666428.88572,-364.3391724,-234.8021393,-83.36049652,-621.3619385,-1.4,88.8,-1.2000000000000028,-0.19999999999999707,792.0
793,1618666428.921,1618666428.9157,-330.4257813,-260.6411133,-98.78384399,-651.4082642,-1.3,88.7,-1.2999999999999972,-2.886579864025407e-15,793.0
794,1618666428.921,1618666428.9177,-352.0723267,-263.8349915,-129.0620728,-669.37854,-1.3,88.7,-1.2999999999999972,-2.886579864025407e-15,794.0
795,1618666428.937,1618666428.94369,-319.2658997,-146.3834229,-70.81313324,-531.1630249,-1.2,88.5,-1.5,0.30000000000000004,795.0
796,1618666428.981,1618666428.97767,-350.4529419,-210.8406067,-93.48066711,-666.4725952,-1.1,88.5,-1.5,0.3999999999999999,796.0
797,1618666428.981,1618666428.9796698,-377.1146851,-220.2726288,-104.3226395,-620.2623901,-1.1,88.5,-1.5,0.3999999999999999,797.0
798,1618666429.011,1618666429.01065,-388.2371521,-194.504715,-91.01981354,-609.1473999,-1.1,88.5,-1.5,0.3999999999999999,798.0
799,1618666429.045,1618666429.04463,-385.0881348,-229.9402618,-121.840332,-684.9103394,-1.0,88.4,-1.5999999999999943,0.5999999999999943,799.0
800,1618666429.045,1618666429.04764,-369.8966675,-183.1690826,-90.50370789,-608.1339111,-1.0,88.4,-1.5999999999999943,0.5999999999999943,800.0
801,1618666429.087,1618666429.07461,-395.1858826,-198.8990936,-96.73438263,-612.7901001,-1.0,88.4,-1.5999999999999943,0.5999999999999943,801.0
802,1618666429.087,1618666429.0766098,-367.0019836,-201.3824005,-84.20198059,-689.4804688,-1.0,88.4,-1.5999999999999943,0.5999999999999943,802.0
803,1618666429.116,1618666429.11059,-395.1634521,-197.0141907,-89.72206879,-641.6733398,-1.0,88.4,-1.5999999999999943,0.5999999999999943,803.0
804,1618666429.146,1618666429.1445699,-384.0110474,-224.8577423,-112.7710724,-667.4561768,-0.9,88.5,-1.5,0.6,804.0
805,1618666429.161,1618666429.15757,-390.3688965,-158.3772888,-43.20145416,-560.0350342,-0.9,88.5,-1.5,0.6,805.0
806,1618666429.176,1618666429.17455,-364.6346436,-169.484787,-71.4489212,-594.3336792,-0.9,88.5,-1.5,0.6,806.0
807,1618666429.176,1618666429.17555,-351.2794495,-205.9600372,-87.8296814,-668.9820557,-0.9,88.5,-1.5,0.6,807.0
808,1618666429.207,1618666429.20854,-366.3774414,-193.8951111,-78.17325592,-624.0135498,-0.8,88.6,-1.4000000000000057,0.6000000000000056,808.0
809,1618666429.237,1618666429.24052,-355.2736511,-180.3155365,-87.79602051,-602.9691162,-0.8,88.6,-1.4000000000000057,0.6000000000000056,809.0
810,1618666429.237,1618666429.24152,-338.7844543,-180.3753815,-58.06007767,-655.6268921,-0.8,88.6,-1.4000000000000057,0.6000000000000056,810.0
811,1618666429.267,1618666429.2715,-356.204895,-160.6661072,-41.64565659,-614.704895,-0.8,88.6,-1.4000000000000057,0.6000000000000056,811.0
812,1618666429.311,1618666429.30848,-350.2173157,-182.4697113,-70.52890015,-610.4489136,-0.8,88.7,-1.2999999999999972,0.4999999999999971,812.0
813,1618666429.311,1618666429.31048,-322.209198,-175.749115,-82.09267426,-622.9140015,-0.8,88.7,-1.2999999999999972,0.4999999999999971,813.0
814,1618666429.341,1618666429.3464599,-367.4358215,-209.0192719,-56.77355194,-675.440918,-0.8,88.7,-1.2999999999999972,0.4999999999999971,814.0
815,1618666429.341,1618666429.34746,-337.9354858,-146.8733521,-72.90000153,-573.4912109,-0.8,88.7,-1.2999999999999972,0.4999999999999971,815.0
816,1618666429.371,1618666429.37144,-318.7124023,-142.1835175,-49.32366943,-659.8829346,-0.7,88.8,-1.2000000000000028,0.5000000000000029,816.0
817,1618666429.401,1618666429.4054198,-363.9165649,-162.4724731,-46.45890808,-588.3834839,-0.7,88.8,-1.2000000000000028,0.5000000000000029,817.0
818,1618666429.401,1618666429.40642,-344.016571,-160.6623688,-54.40619278,-576.2886353,-0.7,88.8,-1.2000000000000028,0.5000000000000029,818.0
819,1618666429.447,1618666429.4394,-358.8826599,-151.9446564,-69.11148071,-536.7092896,-0.7,88.9,-1.0999999999999943,0.39999999999999436,819.0
820,1618666429.447,1618666429.4404,-329.9246216,-169.0808716,-56.42948151,-711.2990723,-0.7,88.9,-1.0999999999999943,0.39999999999999436,820.0
821,1618666429.477,1618666429.47239,-290.1507874,-177.7013397,-62.17022705,-614.024231,-0.7,89.0,-1.0,0.30000000000000004,821.0
822,1618666429.507,1618666429.50736,-303.9360657,-97.33089447,-4.332674026,-614.4692993,-0.8,89.1,-0.9000000000000057,0.10000000000000564,822.0
823,1618666429.507,1618666429.50836,-338.9452515,-179.3768158,-51.30955887,-577.9118042,-0.8,89.1,-0.9000000000000057,0.10000000000000564,823.0
824,1618666429.537,1618666429.53934,-331.9740906,-168.5984344,-39.68220901,-594.7562866,-0.8,89.1,-0.9000000000000057,0.10000000000000564,824.0
825,1618666429.626,1618666429.6252902,-278.1961975,-87.66886139,53.32349396,-106.7292633,-0.8,89.4,-0.5999999999999943,-0.20000000000000573,825.0
826,1618666429.641,1618666429.64029,-326.3511353,-146.2618713,-38.80146027,-93.35538483,-0.7,89.6,-0.4000000000000057,-0.29999999999999427,826.0
827,1618666429.641,1618666429.64129,-297.7035217,-137.4544067,-31.42638016,-101.3101501,-0.7,89.6,-0.4000000000000057,-0.29999999999999427,827.0
828,1618666429.642,1618666429.64232,-280.4700623,-143.7524109,-44.4113121,-140.3995819,-0.7,89.6,-0.4000000000000057,-0.29999999999999427,828.0
829,1618666429.642,1618666429.64429,-291.1250305,-141.2317047,-36.61362076,-119.7179413,-0.7,89.6,-0.4000000000000057,-0.29999999999999427,829.0
830,1618666429.656,1618666429.64629,-313.6579285,-153.5135498,-43.47633743,-112.3540726,-0.7,89.6,-0.4000000000000057,-0.29999999999999427,830.0
831,1618666429.656,1618666429.66327,-281.4162598,-131.6949615,-43.58105469,-150.8899994,-0.7,89.6,-0.4000000000000057,-0.29999999999999427,831.0
832,1618666429.686,1618666429.68027,-309.4954224,-140.6034088,-45.8511734,-108.3636017,-0.7,89.8,-0.20000000000000284,-0.4999999999999971,832.0
833,1618666429.716,1618666429.71824,-305.0860901,-99.64402771,-25.95116615,-66.14012909,-0.7,89.8,-0.20000000000000284,-0.4999999999999971,833.0
834,1618666429.716,1618666429.72024,-287.3514709,-120.4490891,-38.31153488,-98.29205322,-0.7,89.8,-0.20000000000000284,-0.4999999999999971,834.0
835,1618666429.746,1618666429.7492301,-261.1310425,-137.211319,-39.29138947,-129.9577789,-0.7,90.1,0.09999999999999432,-0.7999999999999943,835.0
836,1618666429.776,1618666429.78021,-273.2782288,-124.8920898,-37.73184967,-163.8338013,-0.7,90.3,0.29999999999999716,-0.9999999999999971,836.0
837,1618666429.776,1618666429.7822099,-265.0579224,-145.3269043,-51.10199356,-122.4929428,-0.7,90.3,0.29999999999999716,-0.9999999999999971,837.0
838,1618666429.821,1618666429.81918,-277.1452942,-103.4849014,-36.97265244,-89.1068573,-0.7,90.3,0.29999999999999716,-0.9999999999999971,838.0
839,1618666429.821,1618666429.8201802,-254.8367767,-126.0065765,-48.61869812,-125.4512024,-0.7,90.3,0.29999999999999716,-0.9999999999999971,839.0
840,1618666429.851,1618666429.8481698,-251.6578674,-131.5453644,-44.6992836,-134.0567169,-0.7,90.6,0.5999999999999943,-1.2999999999999943,840.0
841,1618666429.882,1618666429.88215,-246.6613617,-141.407486,-57.27282715,-146.53302,-0.7,90.8,0.7999999999999972,-1.4999999999999971,841.0
842,1618666429.882,1618666429.88415,-267.2046204,-144.7060852,-71.27501678,-138.3127136,-0.7,90.8,0.7999999999999972,-1.4999999999999971,842.0
843,1618666429.912,1618666429.9168,-268.5285645,-139.7207947,-52.55681229,-106.5422668,-0.7,91.0,1.0,-1.7,843.0
844,1618666429.912,1618666429.91779,-234.947998,-134.0623169,-40.10294724,-188.7751923,-0.7,91.0,1.0,-1.7,844.0
845,1618666429.942,1618666429.94878,-256.3963318,-131.6687927,-51.76769638,-149.8091736,-0.7,91.0,1.0,-1.7,845.0
846,1618666429.972,1618666429.97776,-241.3170471,-127.6820526,-55.93768311,-123.5999527,-0.7,91.1,1.0999999999999943,-1.7999999999999943,846.0
847,1618666429.986,1618666429.97976,-252.7386932,-142.802475,-57.24290848,-138.4997101,-0.7,91.1,1.0999999999999943,-1.7999999999999943,847.0
848,1618666430.016,1618666430.01074,-247.7571564,-130.8048706,-57.83381271,-152.4906769,-0.7,91.2,1.2000000000000028,-1.9000000000000028,848.0
849,1618666430.046,1618666430.04373,-261.217041,-131.2723541,-43.132267,-92.95521545,-0.7,91.2,1.2000000000000028,-1.9000000000000028,849.0
850,1618666430.046,1618666430.04472,-257.4434814,-118.5978394,-43.14722443,-146.0655365,-0.7,91.2,1.2000000000000028,-1.9000000000000028,850.0
851,1618666430.091,1618666430.0837,-270.604187,-127.1061096,-50.74296188,-130.9226837,-0.7,91.3,1.2999999999999972,-1.9999999999999971,851.0
852,1618666430.091,1618666430.08472,-256.3215332,-125.9168243,-43.16592407,-141.9329376,-0.7,91.3,1.2999999999999972,-1.9999999999999971,852.0
853,1618666430.106,1618666430.11068,-254.8068695,-123.1979141,-43.36788177,-134.5840454,-0.7,91.4,1.4000000000000057,-2.100000000000006,853.0
854,1618666430.151,1618666430.14566,-259.9941101,-130.8048706,-37.81412888,-133.761261,-0.7,91.4,1.4000000000000057,-2.100000000000006,854.0
855,1618666430.151,1618666430.1466599,-256.5870667,-124.7686691,-41.41565323,-141.1475677,-0.7,91.4,1.4000000000000057,-2.100000000000006,855.0
856,1618666430.166,1618666430.17565,-262.4624329,-137.4880676,-64.95458221,-143.2419128,-0.6,91.4,1.4000000000000057,-2.0000000000000058,856.0
857,1618666430.166,1618666430.17665,-248.8491974,-101.7533264,-33.11307526,-185.039032,-0.6,91.4,1.4000000000000057,-2.0000000000000058,857.0
858,1618666430.214,1618666430.21562,-232.4310455,-139.7207947,-46.82728577,-168.8377838,-0.6,91.4,1.4000000000000057,-2.0000000000000058,858.0
859,1618666430.214,1618666430.21662,-250.8201294,-127.8017349,-58.62667084,-147.247345,-0.6,91.4,1.4000000000000057,-2.0000000000000058,859.0
860,1618666430.241,1618666430.24061,-232.9172363,-128.8601227,-37.18208694,-153.9567261,-0.6,91.4,1.4000000000000057,-2.0000000000000058,860.0
861,1618666430.272,1618666430.27259,-241.3133087,-128.9498749,-54.62123871,-167.016449,-0.6,91.4,1.4000000000000057,-2.0000000000000058,861.0
862,1618666430.316,1618666430.3165698,-247.9142303,-124.0393906,-44.97977829,-150.3252716,-0.6,91.4,1.4000000000000057,-2.0000000000000058,862.0
863,1618666430.316,1618666430.31757,-261.6658325,-132.7159576,-45.63425827,-151.3200989,-0.6,91.4,1.4000000000000057,-2.0000000000000058,863.0
864,1618666430.331,1618666430.3195698,-259.713623,-127.2145691,-52.13420486,-146.5853729,-0.6,91.4,1.4000000000000057,-2.0000000000000058,864.0
865,1618666430.346,1618666430.34455,-265.2524109,-115.0449295,-41.99533844,-129.7446136,-0.6,91.4,1.4000000000000057,-2.0000000000000058,865.0
866,1618666430.376,1618666430.37255,-249.2905121,-111.4808044,-38.8500824,-152.9469452,-0.6,91.4,1.4000000000000057,-2.0000000000000058,866.0
867,1618666430.406,1618666430.41051,-259.373291,-121.2269897,-48.47284317,-146.3123627,-0.6,91.4,1.4000000000000057,-2.0000000000000058,867.0
